0,10838.0,10849.0,10854.0,10860.0,10860.0,10865.0,10865.0,10865.0,10865.0,10876.0,10882.0,10893.0,10920.0,10953.0,10953.0,10964.0,10964.0,10986.0,11002.0,11019.0,11019.0,11019.0,11030.0,11030.0,11035.0,11046.0,11051.0,11062.0,11062.0,11062.0,11062.0,11062.0,11062.0,11062.0,11062.0,11062.0,11062.0,11062.0,11062.0,11062.0,11062.0,11062.0,11062.0,11062.0,11062.0,11062.0,11062.0,11062.0,11062.0,11062.0,11062.0,11062.0,11062.0,11062.0,11062.0,11062.0,11062.0,11062.0,11062.0,11062.0,11062.0,11062.0,11062.0,11062.0,11068.0,11068.0,11073.0,11079.0,11084.0,11084.0,11084.0,11084.0,11084.0,11084.0,11084.0,11084.0,11084.0,11095.0,11095.0,11117.0,11117.0,11117.0,11117.0,11117.0,11123.0,11123.0,11123.0,11134.0,11139.0,11145.0,11145.0,11145.0,11145.0,11145.0,11156.0,11156.0,11156.0,11156.0,11156.0,11156.0,11156.0,11156.0,11156.0,11156.0,11156.0,11156.0,11156.0,11156.0,11156.0,11156.0,11156.0,11156.0,11156.0,11156.0,11156.0,11156.0,11156.0,11156.0,11156.0,11156.0,11156.0,11156.0,11156.0,11156.0,11156.0,11156.0,11156.0,11156.0,11156.0,11156.0,11156.0,11156.0,11156.0,11156.0,11156.0,11156.0,11156.0,11156.0,11156.0,11156.0,11156.0,11156.0,11156.0,11156.0,11156.0,11156.0,11156.0,11156.0,11156.0,11156.0,11156.0,11156.0,11156.0,11156.0,11156.0,11156.0,11156.0,11156.0,11156.0,11156.0,11156.0,11156.0,11156.0,11156.0,11156.0,11156.0,11156.0,11156.0,11156.0,11156.0,11156.0,11156.0,11156.0,11156.0,11156.0,11156.0,11156.0,11156.0,11156.0,11156.0,11156.0,11156.0,11156.0,11156.0,11156.0,11156.0,11156.0,11156.0,11156.0,11156.0,11156.0,11156.0,11156.0,11156.0,11156.0,11156.0,11156.0,11156.0,11156.0,11156.0,11156.0,11156.0,11156.0,11156.0,11156.0,11156.0,11156.0,11156.0,11156.0,11156.0,11156.0,11156.0,11156.0,11156.0,11156.0,11156.0,11156.0,11156.0,11156.0,11156.0,11156.0,11156.0,11156.0,11156.0,11156.0,11156.0,11156.0,11156.0,11156.0,11156.0,11156.0,11156.0,11156.0,11156.0,11156.0,11156.0,11156.0,11156.0,11156.0,11156.0,11156.0,11156.0,11156.0,11156.0,11156.0,11156.0,11156.0,11156.0,11156.0,11156.0,11156.0,11156.0,11156.0,11156.0,11156.0,11156.0,11156.0,11156.0,11156.0,11156.0,11156.0,11156.0,11156.0,11156.0,11156.0,11156.0,11156.0,11156.0,11156.0,11156.0,11156.0,11156.0,11156.0,11156.0,11156.0,11156.0,11156.0,11156.0,11156.0,11156.0,11156.0,11156.0,11156.0,11156.0,11156.0,11156.0,11156.0,11156.0,11156.0,11156.0,11156.0,11156.0,11156.0,11156.0,11156.0,11156.0,11156.0,11156.0,11156.0,11156.0,11156.0,11156.0,11156.0,11156.0,11156.0,11156.0,11156.0,11156.0,11156.0,11156.0,11156.0,11156.0,11156.0,11156.0,11156.0,11156.0,11156.0,11156.0,11156.0,11156.0,11156.0,11156.0,11156.0,11156.0,11156.0,11156.0,11156.0,11156.0,11156.0,11156.0,11156.0,11156.0,11156.0,11156.0,11156.0,11156.0,11156.0,11156.0,11156.0,11156.0,11156.0,11156.0,11156.0,11156.0,11156.0,11156.0,11156.0,11156.0,11156.0,11156.0,11156.0,11156.0,11156.0,11156.0,11156.0,11156.0,11156.0,11156.0,11156.0,11156.0,11156.0,11156.0,11156.0,11156.0,11156.0,11156.0,11156.0,11156.0,11156.0,11156.0,11156.0,11156.0,11156.0,11156.0,11156.0,11156.0,11156.0,11156.0,11156.0,11156.0,11156.0,11156.0,11156.0,11156.0,11156.0,11156.0,11156.0,11156.0,11156.0,11156.0,11156.0,11156.0,11156.0,11161.0,11161.0,11161.0,11161.0,11161.0,11161.0,11161.0,11161.0,11161.0,11161.0,11161.0,11161.0,11161.0,11161.0,11161.0,11161.0,11161.0,11161.0,11161.0,11161.0,11161.0,11161.0,11161.0,11161.0,11161.0,11161.0,11161.0,11161.0,11161.0,11161.0,11161.0,11161.0,11161.0,11161.0,11161.0,11161.0,11161.0,11161.0,11161.0,11161.0,11161.0,11161.0,11161.0,11161.0,11161.0,11161.0,11161.0,11161.0,11161.0,11161.0,11161.0,11161.0,11161.0,11161.0,11161.0,11161.0,11161.0,11161.0,11161.0,11161.0,11161.0,11161.0,11161.0,11161.0,11161.0,11161.0,11161.0,11161.0,11161.0,11161.0,11161.0,11161.0,11161.0,11161.0,11161.0,11161.0,11161.0,11161.0,11161.0,11161.0,11161.0,11161.0,11161.0,11161.0,11161.0,11161.0,11161.0,11161.0,11161.0,11161.0,11161.0,11161.0,11161.0,11161.0,11161.0,11161.0,11161.0,11161.0,11161.0,11161.0,11161.0,11161.0,11161.0,11161.0,11161.0,11161.0,11161.0,11161.0,11161.0,11161.0,11161.0,11161.0,11161.0,11161.0,11161.0,11161.0,11161.0,11161.0,11161.0,11161.0,11161.0,11161.0,11161.0,11161.0,11161.0,11161.0,11161.0,11161.0,11161.0,11161.0,11161.0,11161.0,11161.0,11161.0,11161.0,11161.0,11161.0,11161.0,11161.0,11161.0,11161.0,11161.0,11161.0,11161.0,11161.0,11161.0,11161.0,11161.0,11161.0,11161.0,11161.0,11161.0,11161.0,11161.0,11161.0,11161.0,11161.0,11161.0,11161.0,11161.0,11161.0,11161.0,11161.0,11161.0,11161.0,11161.0,11161.0,11161.0,11161.0,11161.0,11161.0,11161.0,11161.0,11161.0,11161.0,11161.0,11161.0,11161.0,11161.0,11161.0,11161.0,11161.0,11161.0,11161.0,11161.0,11161.0,11161.0,11161.0,11161.0,11161.0,11161.0,11161.0,11161.0,11161.0,11161.0,11161.0,11161.0,11161.0,11161.0,11161.0,11161.0,11161.0,11161.0,11161.0,11161.0,11161.0,11161.0,11161.0,11161.0,11161.0,11161.0,11161.0,11161.0,11156.0,11156.0,11156.0,11156.0,11150.0,11150.0,11150.0,11150.0,11150.0,11150.0,11150.0,11150.0,11150.0,11145.0,11145.0,11145.0,11145.0,11145.0,11139.0,11139.0,11134.0,11128.0,11128.0,11128.0,11128.0,11128.0,11128.0,11128.0,11128.0,11123.0,11117.0,11117.0,11117.0,11117.0,11117.0,11117.0,11117.0,11117.0,11117.0,11117.0,11117.0,11117.0,11117.0,11117.0,11117.0,11117.0,11117.0,11117.0,11117.0,11117.0,11117.0,11117.0,11117.0,11117.0,11117.0,11117.0,11117.0,11112.0,11112.0,11112.0,11112.0,11112.0,11112.0,11112.0,11112.0,11106.0,11106.0,11106.0,11106.0,11101.0,11101.0,11101.0,11101.0,11101.0,11095.0,11095.0,11095.0,11095.0,11095.0,11095.0,11095.0,11095.0,11095.0,11090.0,11090.0,11090.0,11090.0,11084.0,11079.0,11073.0,11073.0,11073.0,11073.0,11073.0,11073.0,11073.0,11073.0,11073.0,11073.0,11073.0,11073.0,11073.0,11073.0,11073.0,11073.0,11068.0,11068.0,11068.0,11068.0,11068.0,11068.0,11068.0,11068.0,11068.0,11068.0,11068.0,11062.0,11062.0,11062.0,11062.0,11062.0,11062.0,11062.0,11062.0,11062.0,11062.0,11062.0,11062.0,11062.0,11062.0,11062.0,11062.0,11062.0,11062.0,11062.0,11068.0,11068.0,11068.0,11068.0,11068.0,11068.0,11068.0,11068.0,11068.0,11068.0,11068.0,11073.0,11073.0,11073.0,11073.0,11073.0,11073.0,11073.0,11073.0,11073.0,11073.0,11073.0,11073.0,11073.0,11079.0,11084.0,11084.0,11090.0,11090.0,11090.0,11095.0,11095.0,11095.0,11095.0,11095.0,11101.0,11101.0,11101.0,11101.0,11101.0,11101.0,11106.0,11106.0,11106.0,11117.0,11117.0,11117.0,11117.0,11117.0,11117.0,11117.0,11117.0,11117.0,11117.0,11117.0,11117.0,11117.0,11117.0,11117.0,11117.0,11117.0,11117.0,11117.0,11117.0,11117.0,11117.0,11117.0,11117.0,11117.0,11117.0,11117.0,11128.0,11128.0,11128.0,11128.0,11128.0,11128.0,11128.0,11134.0,11139.0,11139.0,11145.0,11145.0,11145.0,11150.0,11150.0,11150.0,11156.0,11156.0,11156.0,11161.0,11161.0,11161.0,11161.0,11167.0,11167.0,11167.0,11167.0,11172.0,11183.0,11183.0,11183.0,11189.0,11189.0,11194.0,11194.0,11194.0,11205.0,11205.0,11205.0,11205.0,11205.0,11216.0,11227.0,11227.0,11232.0,11238.0,11238.0,11238.0,11238.0,11238.0,11238.0,11249.0,11249.0,11249.0,11254.0,11254.0,11254.0,11260.0,11260.0,11260.0,11265.0,11265.0,11271.0,11276.0,11276.0,11282.0,11282.0,11282.0,11287.0,11287.0,11287.0,11287.0,11287.0,11287.0,11287.0,11287.0,11287.0,11287.0,11287.0,11287.0,11287.0,11287.0,11287.0,11287.0,11287.0,11287.0,11287.0,11287.0,11287.0,11287.0,11287.0,11287.0,11287.0,11287.0,11287.0,11287.0,11287.0,11287.0,11287.0,11287.0,11293.0,11293.0,11293.0,11293.0,11293.0,11293.0,11298.0,11298.0,11304.0,11304.0,11309.0,11309.0,11309.0,11309.0,11315.0,11315.0,11315.0,11315.0,11315.0,11315.0,11315.0,11315.0,11315.0,11315.0,11315.0,11315.0,11315.0,11315.0,11315.0,11315.0,11315.0,11315.0,11315.0,11315.0,11315.0,11315.0,11315.0,11315.0,11315.0,11315.0,11315.0,11315.0,11315.0,11315.0,11315.0,11315.0,11315.0,11315.0,11315.0,11315.0,11315.0,11315.0,11315.0,11315.0,11315.0,11315.0,11315.0,11315.0,11315.0,11315.0,11315.0,11315.0,11315.0,11315.0,11315.0,11315.0,11315.0,11315.0,11315.0,11315.0,11315.0,11315.0,11315.0,11315.0,11315.0,11315.0,11315.0,11315.0,11315.0,11315.0,11315.0,11315.0,11315.0,11315.0,11315.0,11315.0,11315.0,11315.0,11315.0,11315.0,11315.0,11315.0,11315.0,11315.0,11315.0,11315.0,11315.0,11315.0,11315.0,11315.0,11315.0,11315.0,11315.0,11315.0,11315.0,11315.0,11315.0,11315.0,11315.0,11315.0,11315.0,11315.0,11315.0,11315.0,11315.0,11315.0,11315.0,11315.0,11315.0,11315.0,11315.0,11315.0,11315.0,11309.0,11309.0,11309.0,11309.0,11309.0,11309.0,11309.0,11309.0,11304.0,11298.0,11298.0,11293.0,11293.0,11287.0,11287.0,11287.0,11287.0,11287.0,11287.0,11287.0,11287.0,11287.0,11287.0,11287.0,11287.0,11287.0,11287.0,11287.0,11287.0,11287.0,11287.0,11287.0,11287.0,11287.0,11287.0,11287.0,11287.0,11287.0,11287.0,11287.0,11287.0,11287.0,11287.0,11287.0,11287.0,11287.0,11282.0,11276.0,11271.0,11271.0,11265.0,11265.0,11265.0,11265.0,11260.0,11254.0,11254.0,11249.0,11249.0,11238.0,11232.0,11227.0,11221.0,11221.0,11216.0,11216.0,11210.0,11205.0,11205.0,11205.0,11205.0,11194.0,11194.0,11194.0,11194.0,11194.0,11194.0,11194.0,11194.0,11194.0,11194.0,11194.0,11194.0,11194.0,11194.0,11194.0,11194.0,11189.0,11189.0,11189.0,11189.0,11183.0,11183.0,11178.0,11178.0,11172.0,11167.0,11167.0,11167.0,11167.0,11161.0,11161.0,11156.0,11150.0,11150.0,11150.0,11145.0,11145.0,11145.0,11145.0,11145.0,11145.0,11145.0,11139.0,11139.0,11139.0,11134.0,11128.0,11117.0,11112.0,11112.0,11112.0,11106.0,11106.0,11101.0,11095.0,11095.0,11095.0,11095.0,11095.0,11090.0,11090.0,11090.0,11084.0,11084.0,11084.0,11079.0,11079.0,11079.0,11079.0,11079.0,11073.0,11073.0,11073.0,11073.0,11073.0,11073.0,11073.0,11073.0,11073.0,11073.0,11073.0,11073.0,11068.0,11068.0,11062.0,11062.0,11062.0,11062.0,11057.0,11057.0,11057.0,11057.0,11057.0,11057.0,11046.0,11046.0,11046.0,11046.0,11041.0,11041.0,11041.0,11041.0,11041.0,11041.0,11041.0,11041.0,11041.0,11041.0,11041.0,11041.0,11041.0,11041.0,11041.0,11041.0,11041.0,11046.0,11046.0,11046.0,11051.0,11051.0,11051.0,11057.0,11057.0,11057.0,11057.0,11062.0,11062.0,11062.0,11062.0,11068.0,11068.0,11068.0,11068.0,11068.0,11073.0,11073.0,11073.0,11073.0,11073.0,11073.0,11073.0,11073.0,11073.0,11073.0,11073.0,11073.0,11079.0,11079.0,11079.0,11079.0,11079.0,11079.0,11079.0,11079.0,11079.0,11084.0,11084.0,11084.0,11084.0,11084.0,11084.0,11084.0,11084.0,11084.0,11090.0,11090.0,11090.0,11090.0,11095.0,11095.0,11095.0,11095.0,11095.0,11095.0,11095.0,11095.0,11095.0,11095.0,11095.0,11095.0,11095.0,11095.0,11095.0,11095.0,11101.0,11101.0,11101.0,11101.0,11106.0,11112.0,11112.0,11112.0,11112.0,11112.0,11112.0,11112.0,11112.0,11117.0,11117.0,11123.0,11123.0,11128.0,11128.0,11128.0,11128.0,11134.0,11134.0,11134.0,11134.0,11139.0,11139.0,11139.0,11139.0,11139.0,11145.0,11145.0,11145.0,11145.0,11145.0,11145.0,11145.0,11145.0,11150.0,11150.0,11150.0,11150.0,11150.0,11150.0,11150.0,11156.0,11156.0,11156.0,11156.0,11156.0,11161.0,11161.0,11161.0,11161.0,11161.0,11161.0,11161.0,11161.0,11161.0,11161.0,11161.0,11161.0,11161.0,11161.0,11161.0,11161.0,11161.0,11161.0,11161.0,11161.0,11161.0,11161.0,11161.0,11161.0,11161.0,11161.0,11161.0,11161.0,11161.0,11161.0,11161.0,11161.0,11161.0,11161.0,11161.0,11161.0,11161.0,11161.0,11161.0,11161.0,11161.0,11161.0,11161.0,11161.0,11161.0,11161.0,11161.0,11161.0,11161.0,11161.0,11161.0,11161.0,11161.0,11161.0,11161.0,11161.0,11161.0,11161.0,11161.0,11161.0,11161.0,11161.0,11161.0,11161.0,11161.0,11161.0,11161.0,11161.0,11161.0,11161.0,11161.0,11161.0,11161.0,11161.0,11161.0,11161.0,11161.0,11161.0,11161.0,11161.0,11161.0,11161.0,11161.0,11161.0,11161.0,11161.0,11161.0,11161.0,11161.0,11161.0,11161.0,11161.0,11161.0,11161.0,11161.0,11161.0,11161.0,11161.0,11161.0,11161.0,11161.0,11161.0,11161.0,11161.0,11161.0,11161.0,11161.0,11161.0,11161.0,11161.0,11161.0,11161.0,11161.0,11161.0,11161.0,11161.0,11161.0,11161.0,11161.0,11161.0,11161.0,11161.0,11161.0,11161.0,11161.0,11161.0,11161.0,11161.0,11161.0,11161.0,11161.0,11161.0,11161.0,11161.0,11161.0,11161.0,11161.0,11161.0,11161.0,11161.0,11161.0,11161.0,11161.0,11161.0,11161.0,11161.0,11161.0,11161.0,11161.0,11161.0,11161.0,11161.0,11161.0,11161.0,11161.0,11161.0,11161.0,11161.0,11161.0,11161.0,11161.0,11161.0,11161.0,11161.0,11161.0,11161.0,11161.0,11156.0,11156.0,11156.0,11156.0,11156.0,11156.0,11156.0,11156.0,11156.0,11156.0,11156.0,11156.0,11156.0,11156.0,11150.0,11150.0,11150.0,11150.0,11150.0,11150.0,11145.0,11145.0,11145.0,11145.0,11145.0,11145.0,11145.0,11139.0,11139.0,11139.0,11139.0,11134.0,11134.0,11134.0,11134.0,11134.0,11128.0,11128.0,11128.0,11128.0,11128.0,11123.0,11123.0,11117.0,11117.0,11112.0,11112.0,11112.0,11112.0,11112.0,11112.0,11112.0,11112.0,11106.0,11101.0,11101.0,11101.0,11095.0,11095.0,11095.0,11095.0,11095.0,11095.0,11095.0,11095.0,11095.0,11095.0,11095.0,11095.0,11095.0,11095.0,11095.0,11095.0,11095.0,11095.0,11095.0,11095.0,11095.0,11095.0,11095.0,11095.0,11095.0,11095.0,11095.0,11095.0,11095.0,11095.0,11095.0,11101.0,11101.0,11101.0,11106.0,11106.0,11112.0,11112.0,11112.0,11112.0,11112.0,11112.0,11117.0,11123.0,11123.0,11128.0,11128.0,11128.0,11128.0,11128.0,11128.0,11134.0,11134.0,11134.0,11134.0,11134.0,11139.0,11139.0,11139.0,11139.0,11145.0,11150.0,11150.0,11150.0,11150.0,11150.0,11150.0,11150.0,11150.0,11150.0,11156.0,11156.0,11156.0,11156.0,11156.0,11156.0,11156.0,11156.0,11156.0,11156.0,11156.0,11156.0,11156.0,11156.0,11156.0,11156.0,11156.0,11156.0,11156.0,11156.0,11161.0,11161.0,11161.0,11161.0,11161.0,11167.0,11167.0,11167.0,11172.0,11172.0,11172.0,11172.0,11172.0,11172.0,11172.0,11172.0,11172.0,11172.0,11172.0,11172.0,11172.0,11172.0,11172.0,11172.0,11172.0,11172.0,11172.0,11178.0,11178.0,11178.0,11178.0,11178.0,11178.0,11178.0,11183.0,11183.0,11189.0,11189.0,11189.0,11194.0,11194.0,11194.0,11200.0,11200.0,11200.0,11200.0,11200.0,11200.0,11205.0,11205.0,11205.0,11205.0,11205.0,11205.0,11210.0,11210.0,11210.0,11210.0,11210.0,11210.0,11210.0,11216.0,11216.0,11216.0,11216.0,11216.0,11221.0,11221.0,11221.0,11221.0,11221.0,11221.0,11221.0,11221.0,11221.0,11221.0,11221.0,11221.0,11221.0,11221.0,11221.0,11221.0,11227.0,11227.0,11227.0,11227.0,11227.0,11227.0,11227.0,11227.0,11227.0,11227.0,11227.0,11232.0,11232.0,11232.0,11232.0,11238.0,11238.0,11238.0,11238.0,11238.0,11238.0,11238.0,11238.0,11238.0,11238.0,11238.0,11238.0,11238.0,11238.0,11238.0,11238.0,11238.0,11238.0,11238.0,11238.0,11243.0,11243.0,11243.0,11243.0,11243.0,11243.0,11249.0,11249.0,11249.0,11249.0,11249.0,11249.0,11254.0,11254.0,11260.0,11260.0,11260.0,11260.0,11260.0,11260.0,11260.0,11260.0,11260.0,11260.0,11260.0,11260.0,11260.0,11260.0,11260.0,11260.0,11260.0,11260.0,11260.0,11260.0,11260.0,11260.0,11260.0,11260.0,11260.0,11260.0,11260.0,11260.0,11260.0,11260.0,11260.0,11260.0,11260.0,11260.0,11260.0,11260.0,11260.0,11260.0,11260.0,11260.0,11260.0,11260.0,11260.0,11260.0,11260.0,11260.0,11260.0,11260.0,11260.0,11260.0,11260.0,11260.0,11260.0,11260.0,11260.0,11260.0,11260.0,11260.0,11260.0,11260.0,11260.0,11260.0,11260.0,11260.0,11260.0,11260.0,11260.0,11260.0,11260.0,11260.0,11260.0,11260.0,11260.0,11260.0,11260.0,11260.0,11260.0,11260.0,11260.0,11260.0,11260.0,11260.0,11260.0,11260.0,11260.0,11260.0,11260.0,11260.0,11260.0,11260.0,11260.0,11260.0,11260.0,11260.0,11260.0,11260.0,11260.0,11260.0,11260.0,11260.0,11260.0,11260.0,11260.0,11260.0,11260.0,11260.0,11260.0,11260.0,11260.0,11260.0,11260.0,11260.0,11260.0,11260.0,11260.0,11260.0,11260.0,11260.0,11260.0,11260.0,11260.0,11260.0,11260.0,11260.0,11260.0,11260.0,11260.0,11260.0,11260.0,11260.0,11260.0,11260.0,11260.0,11260.0,11260.0,11260.0,11260.0,11260.0,11260.0,11260.0,11260.0,11260.0,11260.0,11260.0,11260.0,11260.0,11260.0,11260.0,11260.0,11260.0,11260.0,11260.0,11260.0,11260.0,11260.0,11260.0,11260.0,11260.0,11260.0,11260.0,11260.0,11260.0,11260.0,11260.0,11260.0,11260.0,11260.0,11260.0,11260.0,11260.0,11260.0,11260.0,11260.0,11260.0,11260.0,11260.0,11260.0,11260.0,11260.0,11260.0,11260.0,11260.0,11260.0,11260.0,11260.0,11260.0,11260.0,11260.0,11260.0,11254.0,11254.0,11249.0,11249.0,11249.0,11249.0,11243.0,11243.0,11243.0,11243.0,11238.0,11238.0,11238.0,11238.0,11238.0,11238.0,11238.0,11238.0,11238.0,11238.0,11238.0,11238.0,11238.0,11238.0,11238.0,11238.0,11232.0,11232.0,11232.0,11227.0,11227.0,11221.0,11221.0,11221.0,11221.0,11221.0,11221.0,11221.0,11221.0,11221.0,11221.0,11221.0,11221.0,11221.0,11221.0,11221.0,11221.0,11216.0,11216.0,11216.0,11210.0,11210.0,11210.0,11200.0,11200.0,11200.0,11200.0,11200.0,11194.0,11194.0,11194.0,11194.0,11194.0,11194.0,11194.0,11194.0,11194.0,11194.0,11194.0,11194.0,11194.0,11194.0,11194.0,11194.0,11194.0,11194.0,11194.0,11194.0,11194.0,11194.0,11194.0,11194.0,11194.0,11194.0,11194.0,11194.0,11194.0,11194.0,11194.0,11194.0,11194.0,11194.0,11194.0,11194.0,11194.0,11194.0,11194.0,11194.0,11194.0,11194.0,11194.0,11194.0,11194.0,11194.0,11194.0,11194.0,11194.0,11194.0,11194.0,11194.0,11194.0,11194.0,11194.0,11194.0,11194.0,11194.0,11194.0,11194.0,11194.0,11194.0,11194.0,11194.0,11194.0,11194.0,11194.0,11194.0,11194.0,11194.0,11200.0,11200.0,11200.0,11200.0,11200.0,11200.0,11200.0,11205.0,11205.0,11205.0,11210.0,11210.0,11210.0,11216.0,11216.0,11216.0,11216.0,11216.0,11216.0,11221.0,11221.0,11221.0,11221.0,11221.0,11221.0,11221.0,11221.0,11227.0,11227.0,11227.0,11227.0,11227.0,11227.0,11227.0,11227.0,11232.0,11238.0,11238.0,11238.0,11238.0,11238.0,11238.0,11238.0,11238.0,11238.0,11238.0,11238.0,11238.0,11238.0,11238.0,11243.0,11243.0,11243.0,11249.0,11249.0,11249.0,11249.0,11249.0,11249.0,11249.0,11249.0,11254.0,11254.0,11254.0,11254.0,11254.0,11254.0,11254.0,11254.0,11260.0,11260.0,11260.0,11260.0,11260.0,11260.0,11260.0,11260.0,11265.0,11265.0,11265.0,11271.0,11271.0,11271.0,11271.0,11271.0,11276.0,11276.0,11276.0,11276.0,11282.0,11282.0,11282.0,11287.0,11287.0,11287.0,11287.0,11287.0,11287.0,11287.0,11287.0,11287.0,11287.0,11287.0,11293.0,11293.0,11293.0,11293.0,11293.0,11293.0,11293.0,11293.0,11293.0,11293.0,11293.0,11293.0,11293.0,11293.0,11293.0,11287.0,11287.0,11287.0,11287.0,11287.0,11287.0,11287.0,11287.0,11287.0,11287.0,11282.0,11282.0,11282.0,11282.0,11282.0,11282.0,11276.0,11276.0,11276.0,11276.0,11276.0,11276.0,11276.0,11276.0,11276.0,11276.0,11271.0,11271.0,11271.0,11271.0,11271.0,11271.0,11271.0,11271.0,11271.0,11271.0,11271.0,11271.0,11271.0,11271.0,11271.0,11271.0,11271.0,11271.0,11271.0,11271.0,11271.0,11271.0,11271.0,11271.0,11271.0,11271.0,11271.0,11271.0,11271.0,11271.0,11271.0,11271.0,11271.0,11271.0,11271.0,11271.0,11271.0,11271.0,11271.0,11271.0,11271.0,11271.0,11271.0,11271.0,11271.0,11271.0,11271.0,11271.0,11271.0,11265.0,11265.0,11265.0,11265.0,11265.0,11260.0,11260.0,11260.0,11260.0,11260.0,11260.0,11260.0,11260.0,11260.0,11260.0,11260.0,11260.0,11260.0,11260.0,11260.0,11254.0,11254.0,11254.0,11254.0,11254.0,11254.0,11254.0,11249.0,11249.0,11249.0,11249.0,11249.0,11249.0,11249.0,11249.0,11249.0,11243.0,11243.0,11243.0,11243.0,11243.0,11243.0,11243.0,11243.0,11238.0,11238.0,11238.0,11238.0,11238.0,11238.0,11238.0,11238.0,11238.0,11238.0,11238.0,11238.0,11238.0,11232.0,11232.0,11232.0,11227.0,11227.0,11227.0,11227.0,11227.0,11227.0,11227.0,11221.0,11216.0,11216.0,11216.0,11216.0,11216.0,11216.0,11216.0,11210.0,11205.0,11205.0,11205.0,11205.0,11205.0,11205.0,11205.0,11205.0,11200.0,11200.0,11200.0,11200.0,11200.0,11200.0,11200.0,11200.0,11200.0,11200.0,11200.0,11200.0,11200.0,11200.0,11200.0,11200.0,11200.0,11200.0,11200.0,11200.0,11200.0,11200.0,11200.0,11200.0,11200.0,11200.0,11200.0,11200.0,11200.0,11200.0,11200.0,11200.0,11200.0,11200.0,11200.0,11200.0,11200.0,11200.0,11200.0,11200.0,11200.0,11200.0,11200.0,11200.0,11200.0,11200.0,11200.0,11200.0,11200.0,11200.0,11200.0,11200.0,11200.0,11205.0,11205.0,11205.0,11205.0,11205.0,11205.0,11205.0,11205.0,11205.0,11205.0,11205.0,11205.0,11205.0,11205.0,11205.0,11205.0,11210.0,11210.0,11210.0,11210.0,11210.0,11216.0,11216.0,11216.0,11216.0,11216.0,11216.0,11216.0,11221.0,11227.0,11227.0,11227.0,11227.0,11227.0,11227.0,11227.0,11227.0,11227.0,11232.0,11232.0,11232.0,11238.0,11238.0,11238.0,11238.0,11238.0,11238.0,11238.0,11238.0,11238.0,11238.0,11238.0,11238.0,11238.0,11238.0,11243.0,11243.0,11243.0,11243.0,11243.0,11243.0,11243.0,11243.0,11243.0,11249.0,11249.0,11249.0,11249.0,11249.0,11249.0,11249.0,11249.0,11254.0,11254.0,11254.0,11254.0,11254.0,11254.0,11260.0,11260.0,11260.0,11260.0,11260.0,11260.0,11260.0,11260.0,11260.0,11260.0,11260.0,11260.0,11260.0,11260.0,11265.0,11265.0,11265.0,11265.0,11265.0,11271.0,11271.0,11271.0,11271.0,11271.0,11271.0,11271.0,11271.0,11271.0,11271.0,11271.0,11271.0,11271.0,11271.0,11271.0,11271.0,11271.0,11271.0,11271.0,11271.0,11271.0,11271.0,11271.0,11271.0,11271.0,11271.0,11271.0,11271.0,11271.0,11276.0,11276.0,11276.0,11276.0,11276.0,11276.0,11276.0,11276.0,11276.0,11276.0,11276.0,11276.0,11276.0,11282.0,11282.0,11282.0,11282.0,11282.0,11282.0,11282.0,11282.0,11282.0,11282.0,11282.0,11282.0,11282.0,11282.0,11282.0,11282.0,11282.0,11287.0,11287.0,11287.0,11287.0,11287.0,11287.0,11287.0,11287.0,11287.0,11287.0,11287.0,11287.0,11287.0,11287.0,11287.0,11287.0,11287.0,11287.0,11287.0,11287.0,11287.0,11287.0,11287.0,11287.0,11287.0,11287.0,11287.0,11287.0,11287.0,11287.0,11287.0,11287.0,11287.0,11287.0,11287.0,11287.0,11287.0,11287.0,11287.0,11287.0,11287.0,11287.0,11287.0,11287.0,11287.0,11287.0,11287.0,11287.0,11287.0,11287.0,11287.0,11287.0,11287.0,11287.0,11287.0,11287.0,11287.0,11287.0,11287.0,11287.0,11287.0,11287.0,11287.0,11287.0,11287.0,11287.0,11287.0,11287.0,11287.0,11287.0,11287.0,11287.0,11287.0,11287.0,11287.0,11287.0,11287.0,11287.0,11287.0,11287.0,11287.0,11287.0,11287.0,11287.0,11287.0,11287.0,11287.0,11287.0,11287.0,11287.0,11287.0,11287.0,11287.0,11287.0,11287.0,11287.0,11287.0,11287.0,11287.0,11287.0,11287.0,11287.0,11287.0,11287.0,11287.0,11287.0,11287.0,11282.0,11282.0,11282.0,11282.0,11282.0,11282.0,11282.0,11282.0,11282.0,11282.0,11282.0,11282.0,11282.0,11282.0,11276.0,11276.0,11276.0,11276.0,11276.0,11276.0,11276.0,11276.0,11276.0,11276.0,11271.0,11271.0,11271.0,11271.0,11271.0,11271.0,11271.0,11271.0,11271.0,11271.0,11271.0,11271.0,11271.0,11271.0,11271.0,11271.0,11271.0,11271.0,11271.0,11271.0,11271.0,11271.0,11271.0,11271.0,11271.0,11271.0,11265.0,11265.0,11265.0,11265.0,11260.0,11260.0,11260.0,11260.0,11260.0,11260.0,11260.0,11260.0,11254.0,11254.0,11254.0,11254.0,11249.0,11243.0,11243.0,11243.0,11243.0,11243.0,11243.0,11243.0,11243.0,11238.0,11238.0,11232.0,11232.0,11227.0,11227.0,11227.0,11216.0,11216.0,11216.0,11216.0,11216.0,11210.0,11210.0,11210.0,11210.0,11205.0,11205.0,11205.0,11205.0,11205.0,11205.0,11205.0,11205.0,11205.0,11205.0,11205.0,11205.0,11205.0,11200.0,11200.0,11200.0,11200.0,11200.0,11200.0,11200.0,11200.0,11200.0,11189.0,11189.0,11189.0,11189.0,11183.0,11183.0,11183.0,11178.0,11161.0,11161.0,11161.0,11161.0,11161.0,11161.0,11161.0,11161.0,11161.0,11161.0,11161.0,11161.0,11161.0,11161.0,11161.0,11161.0,11161.0,11161.0,11161.0,11161.0,11161.0,11161.0,11161.0,11161.0,11161.0,11161.0,11161.0,11161.0,11161.0,11161.0,11161.0,11161.0,11161.0,11161.0,11161.0,11161.0,11161.0,11161.0,11161.0,11161.0,11161.0,11161.0,11161.0,11161.0,11161.0,11161.0,11161.0,11161.0,11161.0,11161.0,11161.0,11161.0,11161.0,11161.0,11161.0,11161.0,11161.0,11161.0,11161.0,11161.0,11161.0,11161.0,11161.0,11161.0,11161.0,11161.0,11161.0,11161.0,11161.0,11161.0,11161.0,11161.0,11161.0,11161.0,11161.0,11161.0,11161.0,11161.0,11161.0,11161.0,11161.0,11161.0,11161.0,11161.0,11161.0,11161.0,11161.0,11161.0,11161.0,11167.0,11167.0,11167.0,11172.0,11172.0,11172.0,11172.0,11172.0,11172.0,11172.0,11172.0,11178.0,11178.0,11178.0,11183.0,11183.0,11183.0,11189.0,11189.0,11189.0,11189.0,11189.0,11189.0,11189.0,11189.0,11194.0,11200.0,11200.0,11200.0,11200.0,11200.0,11200.0,11200.0,11200.0,11200.0,11200.0,11200.0,11200.0,11200.0,11200.0,11200.0,11200.0,11200.0,11200.0,11200.0,11200.0,11200.0,11200.0,11205.0,11205.0,11205.0,11205.0,11205.0,11205.0,11205.0,11205.0,11205.0,11210.0,11210.0,11210.0,11210.0,11210.0,11210.0,11210.0,11210.0,11210.0,11216.0,11216.0,11216.0,11221.0,11221.0,11221.0,11221.0,11221.0,11221.0,11221.0,11227.0,11227.0,11227.0,11227.0,11227.0,11232.0,11238.0,11238.0,11238.0,11238.0,11238.0,11243.0,11243.0,11254.0,11254.0,11254.0,11254.0,11254.0,11254.0,11260.0,11260.0,11260.0,11260.0,11265.0,11265.0,11265.0,11265.0,11265.0,11265.0,11265.0,11265.0,11265.0,11265.0,11265.0,11265.0,11265.0,11265.0,11265.0,11265.0,11265.0,11265.0,11265.0,11265.0,11265.0,11265.0,11265.0,11265.0,11265.0,11265.0,11265.0,11265.0,11265.0,11265.0,11265.0,11265.0,11265.0,11265.0,11265.0,11265.0,11265.0,11265.0,11265.0,11265.0,11265.0,11265.0,11265.0,11265.0,11265.0,11265.0,11265.0,11265.0,11265.0,11265.0,11265.0,11265.0,11265.0,11265.0,11265.0,11265.0,11265.0,11265.0,11265.0,11265.0,11265.0,11265.0,11265.0,11265.0,11265.0,11265.0,11265.0,11265.0,11265.0,11265.0,11265.0,11265.0,11265.0,11265.0,11265.0,11260.0,11260.0,11260.0,11260.0,11254.0,11254.0,11254.0,11254.0,11254.0,11254.0,11249.0,11243.0,11238.0,11238.0,11238.0,11238.0,11232.0,11232.0,11227.0,11227.0,11227.0,11227.0,11227.0,11221.0,11221.0,11221.0,11221.0,11221.0,11221.0,11221.0,11221.0,11221.0,11216.0,11216.0,11216.0,11210.0,11210.0,11210.0,11210.0,11210.0,11205.0,11205.0,11205.0,11200.0,11200.0,11200.0,11200.0,11200.0,11200.0,11200.0,11200.0,11200.0,11200.0,11200.0,11200.0,11200.0,11200.0,11200.0,11200.0,11194.0,11189.0,11189.0,11189.0,11189.0,11189.0,11189.0,11183.0,11183.0,11178.0,11178.0,11178.0,11178.0,11172.0,11172.0,11172.0,11172.0,11172.0,11172.0,11172.0,11172.0,11167.0,11167.0,11167.0,11167.0,11161.0,11161.0,11161.0,11161.0,11161.0,11161.0,11161.0,11161.0,11161.0,11161.0,11161.0,11161.0,11161.0,11161.0,11161.0,11161.0,11161.0,11161.0,11161.0,11161.0,11161.0,11161.0,11161.0,11161.0,11161.0,11161.0,11161.0,11161.0,11161.0,11161.0,11161.0,11161.0,11161.0,11161.0,11161.0,11161.0,11161.0,11161.0,11161.0,11161.0,11161.0,11161.0,11167.0,11167.0,11167.0,11167.0,11172.0,11172.0,11172.0,11172.0,11172.0,11172.0,11172.0,11172.0,11172.0,11172.0,11172.0,11172.0,11172.0,11172.0,11178.0,11178.0,11178.0,11178.0,11178.0,11183.0,11183.0,11189.0,11189.0,11189.0,11189.0,11189.0,11194.0,11200.0,11200.0,11200.0,11200.0,11200.0,11200.0,11200.0,11200.0,11200.0,11200.0,11200.0,11200.0,11200.0,11200.0,11200.0,11200.0,11200.0,11205.0,11205.0,11205.0,11205.0,11205.0,11210.0,11210.0,11210.0,11210.0,11210.0,11210.0,11216.0,11216.0,11216.0,11221.0,11221.0,11221.0,11221.0,11221.0,11221.0,11221.0,11221.0,11221.0,11221.0,11221.0,11221.0,11227.0,11227.0,11227.0,11227.0,11227.0,11227.0,11232.0,11232.0,11232.0,11238.0,11238.0,11238.0,11238.0,11243.0,11243.0,11249.0,11254.0,11254.0,11260.0,11260.0,11260.0,11260.0,11260.0,11265.0,11265.0,11265.0,11265.0,11265.0,11265.0,11265.0,11265.0,11265.0,11265.0,11265.0,11265.0,11265.0,11265.0,11265.0,11265.0,11265.0,11265.0,11271.0,11271.0,11271.0,11271.0,11271.0,11271.0,11271.0,11271.0,11271.0,11271.0,11271.0,11271.0,11271.0,11271.0,11271.0,11271.0,11271.0,11271.0,11271.0,11271.0,11271.0,11276.0,11276.0,11276.0,11276.0,11276.0,11276.0,11276.0,11276.0,11276.0,11276.0,11276.0,11276.0,11276.0,11276.0,11276.0,11276.0,11276.0,11276.0,11276.0,11276.0,11276.0,11276.0,11276.0,11276.0,11276.0,11276.0,11276.0,11276.0,11276.0,11276.0,11276.0,11276.0,11282.0,11282.0,11282.0,11282.0,11282.0,11282.0,11282.0,11282.0,11282.0,11282.0,11282.0,11282.0,11282.0,11282.0,11282.0,11282.0,11282.0,11287.0,11287.0,11287.0,11287.0,11287.0,11287.0,11287.0,11287.0,11287.0,11287.0,11287.0,11287.0,11287.0,11287.0,11287.0,11287.0,11287.0,11287.0,11287.0,11287.0,11287.0,11287.0,11287.0,11287.0,11287.0,11287.0,11287.0,11287.0,11287.0,11287.0,11287.0,11287.0,11287.0,11287.0,11287.0,11287.0,11287.0,11287.0,11287.0,11287.0,11287.0,11287.0,11287.0,11287.0,11287.0,11287.0,11287.0,11287.0,11287.0,11287.0,11287.0,11287.0,11287.0,11287.0,11287.0,11287.0,11287.0,11287.0,11287.0,11287.0,11287.0,11287.0,11287.0,11287.0,11287.0,11287.0,11287.0,11287.0,11287.0,11287.0,11287.0,11287.0,11287.0,11287.0,11287.0,11287.0,11287.0,11287.0,11287.0,11287.0,11287.0,11287.0,11287.0,11287.0,11287.0,11287.0,11287.0,11287.0,11287.0,11287.0,11287.0,11287.0,11287.0,11287.0,11287.0,11287.0,11287.0,11287.0,11287.0,11287.0,11287.0,11287.0,11287.0,11287.0,11287.0,11287.0,11287.0,11287.0,11287.0,11287.0,11287.0,11287.0,11287.0,11287.0,11287.0,11287.0,11287.0,11287.0,11287.0,11287.0,11287.0,11287.0,11287.0,11287.0,11287.0,11287.0,11282.0,11282.0,11282.0,11282.0,11282.0,11282.0,11276.0,11276.0,11276.0,11276.0,11276.0,11276.0,11276.0,11276.0,11276.0,11276.0,11276.0,11276.0,11276.0,11276.0,11276.0,11276.0,11276.0,11276.0,11276.0,11276.0,11276.0,11276.0,11276.0,11276.0,11276.0,11276.0,11276.0,11276.0,11276.0,11271.0,11271.0,11271.0,11271.0,11271.0,11271.0,11271.0,11271.0,11271.0,11271.0,11271.0,11271.0,11271.0,11271.0,11271.0,11271.0,11271.0,11271.0,11265.0,11265.0,11265.0,11265.0,11265.0,11265.0,11265.0,11265.0,11265.0,11265.0,11265.0,11265.0,11265.0,11265.0,11260.0,11254.0,11249.0,11243.0,11232.0,11232.0,11227.0,11227.0,11227.0,11227.0,11221.0,11221.0,11221.0,11221.0,11221.0,11216.0,11216.0,11216.0,11210.0,11205.0,11205.0,11205.0,11205.0,11200.0,11200.0,11178.0,11178.0,11172.0,11172.0,11172.0,11172.0,11172.0,11172.0,11167.0,11161.0,11161.0,11156.0,11156.0,11150.0,11150.0,11150.0,11150.0,11145.0,11145.0,11145.0,11145.0,11145.0,11145.0,11145.0,11145.0,11145.0,11145.0,11145.0,11145.0,11145.0,11145.0,11145.0,11145.0,11145.0,11145.0,11145.0,11145.0,11145.0,11145.0,11145.0,11145.0,11145.0,11145.0,11145.0,11145.0,11145.0,11145.0,11145.0,11145.0,11145.0,11145.0,11145.0,11145.0,11145.0,11145.0,11145.0,11145.0,11145.0,11145.0,11145.0,11145.0,11145.0,11145.0,11145.0,11145.0,11145.0,11145.0,11145.0,11145.0,11145.0,11145.0,11145.0,11145.0,11145.0,11145.0,11145.0,11145.0,11145.0,11145.0,11145.0,11145.0,11145.0,11145.0,11145.0,11145.0,11145.0,11145.0,11150.0,11150.0,11150.0,11150.0,11150.0,11150.0,11150.0,11150.0,11150.0,11156.0,11156.0,11156.0,11156.0,11156.0,11161.0,11161.0,11167.0,11167.0,11167.0,11167.0,11172.0,11172.0,11172.0,11172.0,11172.0,11172.0,11172.0,11172.0,11172.0,11172.0,11172.0,11178.0,11178.0,11178.0,11183.0,11183.0,11183.0,11183.0,11183.0,11183.0,11183.0,11183.0,11189.0,11194.0,11200.0,11205.0,11205.0,11205.0,11210.0,11210.0,11210.0,11210.0,11216.0,11216.0,11216.0,11216.0,11221.0,11221.0,11221.0,11221.0,11227.0,11227.0,11227.0,11232.0,11232.0,11232.0,11232.0,11232.0,11232.0,11232.0,11232.0,11232.0,11232.0,11232.0,11238.0,11238.0,11238.0,11243.0,11243.0,11249.0,11249.0,11249.0,11249.0,11249.0,11249.0,11249.0,11254.0,11254.0,11254.0,11254.0,11254.0,11254.0,11254.0,11260.0,11260.0,11260.0,11260.0,11265.0,11265.0,11265.0,11265.0,11265.0,11265.0,11265.0,11265.0,11265.0,11265.0,11265.0,11265.0,11265.0,11265.0,11265.0,11265.0,11265.0,11265.0,11265.0,11265.0,11265.0,11265.0,11265.0,11265.0,11265.0,11265.0,11265.0,11265.0,11265.0,11265.0,11265.0,11265.0,11265.0,11265.0,11265.0,11265.0,11265.0,11265.0,11265.0,11265.0,11265.0,11265.0,11265.0,11265.0,11265.0,11265.0,11265.0,11265.0,11265.0,11265.0,11265.0,11265.0,11265.0,11265.0,11265.0,11265.0,11265.0,11265.0,11265.0,11265.0,11265.0,11265.0,11265.0,11265.0,11265.0,11265.0,11265.0,11265.0,11265.0,11265.0,11265.0,11265.0,11265.0,11265.0,11265.0,11265.0,11265.0,11265.0,11265.0,11265.0,11265.0,11265.0,11265.0,11265.0,11265.0,11265.0,11265.0,11265.0,11265.0,11265.0,11265.0,11265.0,11265.0,11265.0,11265.0,11265.0,11265.0,11265.0,11265.0,11265.0,11265.0,11265.0,11265.0,11265.0,11265.0,11265.0,11265.0,11265.0,11265.0,11265.0,11265.0,11265.0,11265.0,11265.0,11265.0,11265.0,11265.0,11265.0,11265.0,11265.0,11265.0,11265.0,11265.0,11265.0,11265.0,11265.0,11265.0,11265.0,11265.0,11265.0,11265.0,11265.0,11265.0,11265.0,11265.0,11265.0,11265.0,11265.0,11265.0,11265.0,11265.0,11265.0,11265.0,11265.0,11265.0,11265.0,11265.0,11265.0,11265.0,11265.0,11265.0,11265.0,11265.0,11265.0,11265.0,11265.0,11265.0,11265.0,11265.0,11265.0,11265.0,11265.0,11265.0,11265.0,11265.0,11265.0,11265.0,11265.0,11265.0,11265.0,11265.0,11265.0,11265.0,11265.0,11265.0,11265.0,11265.0,11265.0,11265.0,11265.0,11265.0,11265.0,11265.0,11265.0,11265.0,11265.0,11265.0,11265.0,11265.0,11265.0,11265.0,11260.0,11260.0,11260.0,11260.0,11254.0,11254.0,11254.0,11254.0,11254.0,11254.0,11254.0,11254.0,11254.0,11249.0,11249.0,11249.0,11249.0,11249.0,11249.0,11249.0,11249.0,11249.0,11249.0,11249.0,11249.0,11249.0,11249.0,11249.0,11249.0,11249.0,11249.0,11249.0,11249.0,11249.0,11249.0,11249.0,11249.0,11249.0,11249.0,11249.0,11249.0,11249.0,11249.0,11249.0,11249.0,11249.0,11249.0,11249.0,11249.0,11249.0,11249.0,11249.0,11249.0,11249.0,11249.0,11249.0,11249.0,11249.0,11249.0,11249.0,11249.0,11249.0,11249.0,11249.0,11249.0,11249.0,11249.0,11249.0,11249.0,11249.0,11249.0,11249.0,11249.0,11249.0,11249.0,11249.0,11249.0,11249.0,11249.0,11249.0,11249.0,11249.0,11249.0,11249.0,11249.0,11249.0,11249.0,11249.0,11249.0,11249.0,11249.0,11249.0,11249.0,11249.0,11249.0,11249.0,11249.0,11249.0,11249.0,11249.0,11249.0,11249.0,11249.0,11249.0,11249.0,11249.0,11249.0,11249.0,11249.0,11249.0,11249.0,11249.0,11249.0,11249.0,11249.0,11249.0,11249.0,11249.0,11249.0,11249.0,11249.0,11249.0,11249.0,11249.0,11249.0,11249.0,11249.0,11249.0,11249.0,11249.0,11249.0,11249.0,11249.0,11249.0,11249.0,11249.0,11249.0,11249.0,11249.0,11249.0,11249.0,11249.0,11249.0,11249.0,11249.0,11249.0,11249.0,11249.0,11249.0,11249.0,11249.0,11249.0,11249.0,11249.0,11249.0,11249.0,11249.0,11249.0,11249.0,11249.0,11249.0,11249.0,11249.0,11249.0,11254.0,11254.0,11254.0,11254.0,11254.0,11254.0,11254.0,11254.0,11260.0,11260.0,11260.0,11260.0,11260.0,11265.0,11265.0,11265.0,11265.0,11265.0,11265.0,11265.0,11265.0,11265.0,11265.0,11265.0,11265.0,11265.0,11271.0,11271.0,11271.0,11271.0,11271.0,11271.0,11271.0,11271.0,11271.0,11271.0,11271.0,11271.0,11271.0,11271.0,11271.0,11271.0,11271.0,11271.0,11271.0,11271.0,11271.0,11271.0,11271.0,11271.0,11271.0,11271.0,11271.0,11271.0,11271.0,11271.0,11271.0,11271.0,11271.0,11271.0,11271.0,11271.0,11271.0,11271.0,11271.0,11271.0,11271.0,11271.0,11271.0,11271.0,11271.0,11271.0,11271.0,11271.0,11271.0,11271.0,11271.0,11271.0,11271.0,11271.0,11271.0,11271.0,11271.0,11271.0,11271.0,11271.0,11271.0,11271.0,11271.0,11271.0,11271.0,11271.0,11271.0,11271.0,11271.0,11271.0,11271.0,11271.0,11271.0,11271.0,11271.0,11271.0,11271.0,11271.0,11271.0,11271.0,11271.0,11271.0,11271.0,11271.0,11271.0,11271.0,11271.0,11271.0,11271.0,11271.0,11271.0,11271.0,11271.0,11271.0,11271.0,11271.0,11271.0,11271.0,11271.0,11271.0,11271.0,11271.0,11271.0,11271.0,11271.0,11271.0,11271.0,11271.0,11271.0,11271.0,11271.0,11271.0,11271.0,11271.0,11271.0,11271.0,11271.0,11271.0,11271.0,11271.0,11271.0,11271.0,11271.0,11271.0,11271.0,11271.0,11271.0,11271.0,11271.0,11271.0,11271.0,11265.0,11265.0,11265.0,11265.0,11265.0,11265.0,11265.0,11265.0,11265.0,11265.0,11265.0,11265.0,11265.0,11265.0,11265.0,11265.0,11265.0,11265.0,11265.0,11265.0,11265.0,11265.0,11265.0,11265.0,11265.0,11265.0,11265.0,11265.0,11265.0,11265.0,11265.0,11265.0,11265.0,11265.0,11265.0,11265.0,11265.0,11265.0,11265.0,11265.0,11265.0,11265.0,11265.0,11265.0,11265.0,11260.0,11260.0,11260.0,11260.0,11260.0,11254.0,11254.0,11249.0,11249.0,11249.0,11249.0,11243.0,11243.0,11238.0,11238.0,11238.0,11227.0,11227.0,11216.0,11216.0,11216.0,11216.0,11216.0,11210.0,11200.0,11189.0,11189.0,11183.0,11183.0,11183.0,11183.0,11183.0,11183.0,11183.0,11183.0,11183.0,11183.0,11183.0,11183.0,11183.0,11183.0,11183.0,11183.0,11183.0,11183.0,11183.0,11183.0,11183.0,11183.0,11183.0,11183.0,11183.0,11183.0,11183.0,11183.0,11183.0,11183.0,11183.0,11183.0,11183.0,11172.0,11172.0,11172.0,11172.0,11172.0,11167.0,11167.0,11161.0,11161.0,11161.0,11161.0,11161.0,11156.0,11156.0,11150.0,11150.0,11150.0,11150.0,11150.0,11150.0,11150.0,11145.0,11145.0,11145.0,11139.0,11139.0,11139.0,11134.0,11134.0,11134.0,11134.0,11134.0,11134.0,11134.0,11134.0,11134.0,11134.0,11134.0,11134.0,11134.0,11134.0,11134.0,11134.0,11134.0,11134.0,11134.0,11134.0,11134.0,11134.0,11134.0,11134.0,11134.0,11134.0,11134.0,11134.0,11134.0,11134.0,11134.0,11134.0,11134.0,11134.0,11134.0,11134.0,11134.0,11134.0,11134.0,11134.0,11134.0,11134.0,11134.0,11134.0,11134.0,11134.0,11134.0,11134.0,11134.0,11134.0,11134.0,11134.0,11134.0,11134.0,11134.0,11134.0,11134.0,11134.0,11134.0,11134.0,11134.0,11134.0,11134.0,11134.0,11134.0,11134.0,11134.0,11134.0,11134.0,11134.0,11134.0,11134.0,11134.0,11134.0,11134.0,11134.0,11134.0,11134.0,11134.0,11134.0,11134.0,11134.0,11134.0,11134.0,11134.0,11134.0,11134.0,11134.0,11134.0,11134.0,11134.0,11134.0,11134.0,11134.0,11134.0,11134.0,11134.0,11134.0,11134.0,11134.0,11134.0,11134.0,11134.0,11134.0,11134.0,11134.0,11134.0,11134.0,11134.0,11134.0,11134.0,11134.0,11134.0,11134.0,11134.0,11134.0,11134.0,11134.0,11134.0,11134.0,11134.0,11134.0,11134.0,11134.0,11134.0,11134.0,11134.0,11134.0,11134.0,11134.0,11134.0,11134.0,11134.0,11134.0,11134.0,11134.0,11134.0,11134.0,11134.0,11134.0,11134.0,11134.0,11134.0,11134.0,11134.0,11134.0,11134.0,11134.0,11134.0,11134.0,11134.0,11134.0,11134.0,11134.0,11134.0,11134.0,11134.0,11134.0,11134.0,11134.0,11134.0,11134.0,11134.0,11134.0,11134.0,11134.0,11134.0,11134.0,11134.0,11134.0,11134.0,11134.0,11134.0,11134.0,11134.0,11134.0,11134.0,11134.0,11134.0,11134.0,11134.0,11134.0,11134.0,11134.0,11134.0,11134.0,11134.0,11134.0,11134.0,11134.0,11134.0,11134.0,11134.0,11134.0,11134.0,11134.0,11134.0,11134.0,11139.0,11145.0,11145.0,11145.0,11145.0,11150.0,11150.0,11150.0,11156.0,11156.0,11156.0,11156.0,11156.0,11156.0,11156.0,11161.0,11161.0,11161.0,11161.0,11161.0,11161.0,11167.0,11167.0,11167.0,11167.0,11167.0,11167.0,11167.0,11167.0,11172.0,11172.0,11172.0,11172.0,11172.0,11172.0,11172.0,11172.0,11172.0,11172.0,11172.0,11172.0,11172.0,11172.0,11172.0,11172.0,11172.0,11172.0,11172.0,11172.0,11172.0,11172.0,11172.0,11172.0,11172.0,11172.0,11172.0,11172.0,11172.0,11172.0,11172.0,11172.0,11172.0,11172.0,11172.0,11172.0,11172.0,11172.0,11172.0,11172.0,11172.0,11172.0,11172.0,11172.0,11172.0,11172.0,11172.0,11172.0,11172.0,11172.0,11172.0,11172.0,11172.0,11172.0,11172.0,11172.0,11172.0,11172.0,11172.0,11172.0,11172.0,11172.0,11172.0,11172.0,11172.0,11172.0,11172.0,11172.0,11172.0,11172.0,11172.0,11172.0,11172.0,11172.0,11172.0,11172.0,11172.0,11172.0,11172.0,11172.0,11172.0,11172.0,11172.0,11172.0,11172.0,11172.0,11172.0,11172.0,11172.0,11172.0,11172.0,11172.0,11172.0,11172.0,11172.0,11167.0,11167.0,11167.0,11167.0,11167.0,11167.0,11167.0,11167.0,11167.0,11167.0,11167.0,11167.0,11167.0,11167.0,11161.0,11161.0,11161.0,11161.0,11161.0,11161.0,11156.0,11156.0,11156.0,11156.0,11156.0,11156.0,11156.0,11156.0,11156.0,11156.0,11156.0,11156.0,11156.0,11156.0,11156.0,11156.0,11156.0,11156.0,11156.0,11156.0,11156.0,11156.0,11156.0,11156.0,11156.0,11156.0,11156.0,11156.0,11156.0,11156.0,11156.0,11156.0,11156.0,11156.0,11156.0,11156.0,11156.0,11156.0,11156.0,11156.0,11156.0,11156.0,11156.0,11156.0,11156.0,11156.0,11156.0,11156.0,11156.0,11156.0,11156.0,11156.0,11156.0,11156.0,11156.0,11156.0,11156.0,11156.0,11156.0,11156.0,11156.0,11156.0,11156.0,11156.0,11156.0,11156.0,11156.0,11156.0,11156.0,11156.0,11156.0,11156.0,11156.0,11156.0,11156.0,11156.0,11156.0,11156.0,11156.0,11156.0,11156.0,11156.0,11156.0,11156.0,11156.0,11156.0,11156.0,11156.0,11156.0,11156.0,11156.0,11156.0,11156.0,11156.0,11156.0,11156.0,11156.0,11156.0,11156.0,11156.0,11156.0,11156.0,11156.0,11156.0,11156.0,11156.0,11156.0,11156.0,11156.0,11156.0,11156.0,11156.0,11156.0,11156.0,11156.0,11156.0,11156.0,11156.0,11156.0,11156.0,11156.0,11156.0,11156.0,11156.0,11156.0,11156.0,11156.0,11156.0,11161.0,11161.0,11161.0,11161.0,11161.0,11161.0,11161.0,11161.0,11161.0,11161.0,11161.0,11161.0,11161.0,11161.0,11161.0,11161.0,11167.0,11167.0,11167.0,11167.0,11167.0,11167.0,11167.0,11167.0,11167.0,11167.0,11167.0,11167.0,11167.0,11167.0,11172.0,11172.0,11172.0,11172.0,11172.0,11172.0,11172.0,11172.0,11172.0,11172.0,11172.0,11172.0,11172.0,11172.0,11172.0,11172.0,11172.0,11172.0,11172.0,11172.0,11172.0,11172.0,11172.0,11172.0,11172.0,11172.0,11172.0,11172.0,11172.0,11172.0,11172.0,11172.0,11178.0,11178.0,11178.0,11178.0,11178.0,11178.0,11178.0,11178.0,11178.0,11178.0,11178.0,11178.0,11178.0,11178.0,11178.0,11178.0,11178.0,11178.0,11183.0,11183.0,11183.0,11183.0,11183.0,11183.0,11183.0,11183.0,11183.0,11183.0,11183.0,11183.0,11183.0,11183.0,11183.0,11183.0,11183.0,11183.0,11183.0,11183.0,11183.0,11183.0,11183.0,11183.0,11183.0,11183.0,11183.0,11183.0,11183.0,11183.0,11183.0,11183.0,11183.0,11183.0,11183.0,11183.0,11183.0,11183.0,11183.0,11183.0,11183.0,11183.0,11183.0,11183.0,11183.0,11189.0,11189.0,11189.0,11189.0,11189.0,11189.0,11189.0,11189.0,11189.0,11189.0,11189.0,11189.0,11194.0,11194.0,11194.0,11194.0,11194.0,11194.0,11194.0,11194.0,11194.0,11194.0,11200.0,11200.0,11200.0,11200.0,11200.0,11200.0,11205.0,11205.0,11205.0,11205.0,11205.0,11205.0,11205.0,11205.0,11205.0,11205.0,11205.0,11205.0,11205.0,11205.0,11205.0,11205.0,11205.0,11205.0,11205.0,11205.0,11205.0,11205.0,11205.0,11210.0,11210.0,11210.0,11216.0,11216.0,11216.0,11216.0,11216.0,11216.0,11216.0,11216.0,11221.0,11221.0,11221.0,11221.0,11221.0,11221.0,11221.0,11221.0,11221.0,11221.0,11221.0,11221.0,11221.0,11221.0,11221.0,11221.0,11221.0,11221.0,11221.0,11221.0,11221.0,11221.0,11221.0,11221.0,11221.0,11221.0,11221.0,11221.0,11221.0,11221.0,11221.0,11221.0,11221.0,11221.0,11221.0,11221.0,11221.0,11221.0,11221.0,11221.0,11221.0,11221.0,11221.0,11221.0,11221.0,11221.0,11221.0,11221.0,11221.0,11221.0,11221.0,11221.0,11221.0,11216.0,11216.0,11216.0,11216.0,11216.0,11216.0,11216.0,11210.0,11210.0,11205.0,11205.0,11205.0,11205.0,11205.0,11205.0,11205.0,11205.0,11205.0,11205.0,11205.0,11205.0,11205.0,11205.0,11205.0,11205.0,11205.0,11205.0,11205.0,11200.0,11200.0,11200.0,11200.0,11194.0,11194.0,11194.0,11194.0,11194.0,11194.0,11194.0,11189.0,11189.0,11189.0,11189.0,11189.0,11189.0,11189.0,11189.0,11189.0,11189.0,11183.0,11183.0,11183.0,11183.0,11183.0,11183.0,11183.0,11183.0,11183.0,11183.0,11183.0,11183.0,11183.0,11183.0,11183.0,11183.0,11183.0,11183.0,11183.0,11183.0,11183.0,11183.0,11183.0,11183.0,11183.0,11183.0,11183.0,11183.0,11183.0,11183.0,11183.0,11183.0,11183.0,11183.0,11183.0,11183.0,11183.0,11183.0,11183.0,11183.0,11183.0,11183.0,11183.0,11183.0,11183.0,11183.0,11183.0,11183.0,11183.0,11183.0,11183.0,11183.0,11183.0,11183.0,11183.0,11183.0,11183.0,11183.0,11183.0,11183.0,11183.0,11183.0,11183.0,11183.0,11183.0,11183.0,11183.0,11183.0,11183.0,11183.0,11183.0,11183.0,11183.0,11183.0,11183.0,11183.0,11183.0,11183.0,11183.0,11183.0,11183.0,11183.0,11183.0,11178.0,11178.0,11178.0,11178.0,11178.0,11178.0,11178.0,11178.0,11178.0,11178.0,11178.0,11178.0,11178.0,11178.0,11178.0,11178.0,11178.0,11178.0,11178.0,11178.0,11178.0,11178.0,11178.0,11178.0,11178.0,11178.0,11178.0,11178.0,11178.0,11178.0,11178.0,11178.0,11178.0,11178.0,11178.0,11178.0,11178.0,11178.0,11178.0,11178.0,11178.0,11178.0,11178.0,11178.0,11178.0,11178.0,11178.0,11178.0,11178.0,11178.0,11178.0,11178.0,11178.0,11178.0,11178.0,11178.0,11178.0,11178.0,11178.0,11178.0,11178.0,11178.0,11178.0,11178.0,11178.0,11178.0,11178.0,11178.0,11178.0,11178.0,11178.0,11178.0,11178.0,11178.0,11178.0,11178.0,11178.0,11178.0,11178.0,11178.0,11178.0,11178.0,11178.0,11178.0,11178.0,11178.0,11178.0,11178.0,11178.0,11178.0,11178.0,11178.0,11178.0,11178.0,11178.0,11178.0,11178.0,11178.0,11178.0,11178.0,11178.0,11178.0,11178.0,11178.0,11178.0,11178.0,11178.0,11178.0,11178.0,11172.0,11172.0,11161.0,11161.0,11161.0,11161.0,11161.0,11161.0,11161.0,11161.0,11161.0,11156.0,11156.0,11156.0,11156.0,11156.0,11156.0,11156.0,11156.0,11156.0,11150.0,11150.0,11150.0,11150.0,11145.0,11145.0,11145.0,11145.0,11139.0,11128.0,11128.0,11128.0,11128.0,11128.0,11128.0,11128.0,11128.0,11128.0,11128.0,11128.0,11128.0,11128.0,11128.0,11128.0,11128.0,11128.0,11128.0,11128.0,11128.0,11128.0,11128.0,11123.0,11123.0,11123.0,11123.0,11123.0,11123.0,11123.0,11123.0,11123.0,11123.0,11123.0,11123.0,11123.0,11123.0,11123.0,11117.0,11106.0,11106.0,11101.0,11101.0,11101.0,11101.0,11101.0,11101.0,11101.0,11101.0,11101.0,11101.0,11101.0,11101.0,11101.0,11101.0,11101.0,11101.0,11101.0,11101.0,11101.0,11101.0,11101.0,11101.0,11101.0,11101.0,11101.0,11101.0,11101.0,11101.0,11101.0,11101.0,11101.0,11101.0,11101.0,11101.0,11101.0,11101.0,11101.0,11101.0,11101.0,11101.0,11101.0,11101.0,11101.0,11101.0,11101.0,11101.0,11101.0,11101.0,11101.0,11101.0,11101.0,11101.0,11101.0,11101.0,11101.0,11101.0,11101.0,11101.0,11101.0,11101.0,11101.0,11101.0,11101.0,11101.0,11101.0,11101.0,11101.0,11101.0,11101.0,11101.0,11101.0,11101.0,11101.0,11101.0,11101.0,11101.0,11101.0,11101.0,11101.0,11101.0,11101.0,11101.0,11101.0,11101.0,11101.0,11101.0,11101.0,11101.0,11101.0,11101.0,11101.0,11101.0,11101.0,11101.0,11101.0,11101.0,11101.0,11101.0,11101.0,11101.0,11101.0,11101.0,11101.0,11101.0,11101.0,11101.0,11101.0,11101.0,11101.0,11101.0,11101.0,11101.0,11101.0,11101.0,11101.0,11101.0,11101.0,11101.0,11101.0,11101.0,11101.0,11101.0,11101.0,11101.0,11101.0,11101.0,11101.0,11101.0,11101.0,11101.0,11101.0,11101.0,11101.0,11101.0,11101.0,11101.0,11101.0,11101.0,11101.0,11101.0,11101.0,11101.0,11101.0,11101.0,11101.0,11101.0,11101.0,11101.0,11101.0,11101.0,11101.0,11101.0,11101.0,11101.0,11101.0,11101.0,11101.0,11101.0,11101.0,11101.0,11101.0,11101.0,11101.0,11101.0,11101.0,11101.0,11101.0,11101.0,11101.0,11101.0,11101.0,11101.0,11101.0,11101.0,11101.0,11101.0,11101.0,11101.0,11101.0,11101.0,11101.0,11101.0,11101.0,11101.0,11101.0,11101.0,11101.0,11101.0,11101.0,11101.0,11101.0,11101.0,11101.0,11101.0,11101.0,11101.0,11101.0,11101.0,11101.0,11101.0,11101.0,11101.0,11101.0,11101.0,11101.0,11101.0,11101.0,11101.0,11101.0,11101.0,11101.0,11101.0,11101.0,11101.0,11101.0,11101.0,11101.0,11101.0,11101.0,11101.0,11101.0,11101.0,11101.0,11101.0,11101.0,11101.0,11101.0,11101.0,11101.0,11101.0,11101.0,11101.0,11101.0,11101.0,11101.0,11101.0,11101.0,11101.0,11101.0,11101.0,11101.0,11101.0,11101.0,11101.0,11101.0,11101.0,11101.0,11101.0,11101.0,11101.0,11101.0,11101.0,11101.0,11101.0,11101.0,11101.0,11101.0,11101.0,11101.0,11101.0,11101.0,11101.0,11101.0,11101.0,11101.0,11101.0,11101.0,11101.0,11101.0,11101.0,11101.0,11101.0,11101.0,11101.0,11101.0,11101.0,11101.0,11101.0,11101.0,11101.0,11101.0,11101.0,11101.0,11101.0,11101.0,11101.0,11101.0,11101.0,11101.0,11101.0,11101.0,11101.0,11101.0,11101.0,11101.0,11101.0,11101.0,11101.0,11101.0,11101.0,11101.0,11101.0,11101.0,11101.0,11106.0,11112.0,11112.0,11117.0,11117.0,11117.0,11117.0,11117.0,11117.0,11117.0,11134.0,11134.0,11134.0,11134.0,11139.0,11139.0,11145.0,11145.0,11145.0,11145.0,11145.0,11145.0,11145.0,11145.0,11145.0,11145.0,11145.0,11145.0,11145.0,11145.0,11145.0,11145.0,11145.0,11145.0,11145.0,11145.0,11145.0,11145.0,11145.0,11145.0,11145.0,11145.0,11145.0,11145.0,11145.0,11145.0,11145.0,11145.0,11145.0,11145.0,11145.0,11145.0,11145.0,11145.0,11145.0,11145.0,11145.0,11145.0,11145.0,11145.0,11145.0,11145.0,11145.0,11145.0,11145.0,11145.0,11145.0,11145.0,11145.0,11145.0,11145.0,11145.0,11145.0,11145.0,11145.0,11145.0,11145.0,11145.0,11150.0,11150.0,11150.0,11150.0,11150.0,11150.0,11150.0,11156.0,11156.0,11156.0,11156.0,11156.0,11156.0,11156.0,11161.0,11161.0,11161.0,11167.0,11167.0,11167.0,11167.0,11167.0,11167.0,11167.0,11167.0,11167.0,11172.0,11172.0,11172.0,11172.0,11178.0,11178.0,11178.0,11178.0,11178.0,11178.0,11183.0,11183.0,11183.0,11183.0,11183.0,11183.0,11183.0,11183.0,11183.0,11189.0,11189.0,11189.0,11189.0,11194.0,11194.0,11194.0,11194.0,11200.0,11200.0,11200.0,11200.0,11205.0,11205.0,11205.0,11205.0,11205.0,11210.0,11210.0,11210.0,11210.0,11210.0,11216.0,11216.0,11221.0,11221.0,11227.0,11227.0,11227.0,11227.0,11227.0,11227.0,11227.0,11232.0,11232.0,11232.0,11232.0,11232.0,11238.0,11238.0,11238.0,11238.0,11243.0,11243.0,11249.0,11249.0,11249.0,11249.0,11249.0,11249.0,11249.0,11249.0,11254.0,11254.0,11254.0,11254.0,11254.0,11254.0,11254.0,11260.0,11260.0,11265.0,11265.0,11265.0,11271.0,11276.0,11276.0,11276.0,11282.0,11282.0,11282.0,11282.0,11282.0,11282.0,11287.0,11287.0,11287.0,11287.0,11287.0,11287.0,11287.0,11293.0,11293.0,11298.0,11298.0,11298.0,11304.0,11304.0,11309.0,11309.0,11309.0,11315.0,11315.0,11320.0,11320.0,11320.0,11320.0,11320.0,11320.0,11320.0,11326.0,11326.0,11331.0,11331.0,11331.0,11337.0,11337.0,11337.0,11337.0,11337.0,11337.0,11337.0,11337.0,11337.0,11337.0,11342.0,11348.0,11348.0,11348.0,11348.0,11353.0,11353.0,11364.0,11364.0,11364.0,11364.0,11364.0,11364.0,11364.0,11364.0,11364.0,11369.0,11369.0,11369.0,11369.0,11369.0,11369.0,11369.0,11369.0,11369.0,11369.0,11369.0,11369.0,11369.0,11369.0,11369.0,11369.0,11369.0,11375.0,11375.0,11375.0,11375.0,11375.0,11375.0,11375.0,11375.0,11380.0,11380.0,11380.0,11380.0,11380.0,11380.0,11380.0,11386.0,11386.0,11386.0,11386.0,11386.0,11386.0,11386.0,11386.0,11386.0,11386.0,11386.0,11386.0,11391.0,11397.0,11397.0,11397.0,11408.0,11408.0,11408.0,11408.0,11408.0,11408.0,11408.0,11408.0,11408.0,11408.0,11408.0,11408.0,11408.0,11408.0,11408.0,11408.0,11408.0,11408.0,11408.0,11408.0,11408.0,11408.0,11408.0,11408.0,11408.0,11408.0,11408.0,11408.0,11408.0,11408.0,11408.0,11408.0,11408.0,11408.0,11408.0,11408.0,11408.0,11408.0,11408.0,11408.0,11408.0,11408.0,11408.0,11408.0,11408.0,11408.0,11408.0,11408.0,11408.0,11408.0,11408.0,11408.0,11408.0,11408.0,11408.0,11408.0,11408.0,11408.0,11408.0,11408.0,11408.0,11408.0,11408.0,11408.0,11408.0,11408.0,11408.0,11408.0,11408.0,11408.0,11408.0,11408.0,11408.0,11408.0,11408.0,11408.0,11408.0,11408.0,11408.0,11408.0,11408.0,11408.0,11408.0,11408.0,11408.0,11408.0,11408.0,11408.0,11408.0,11408.0,11408.0,11408.0,11408.0,11408.0,11408.0,11408.0,11408.0,11408.0,11408.0,11408.0,11408.0,11408.0,11408.0,11408.0,11408.0,11408.0,11408.0,11408.0,11408.0,11408.0,11408.0,11408.0,11408.0,11408.0,11408.0,11408.0,11408.0,11408.0,11408.0,11408.0,11408.0,11408.0,11408.0,11408.0,11408.0,11408.0,11408.0,11408.0,11408.0,11408.0,11408.0,11408.0,11408.0,11408.0,11408.0,11408.0,11408.0,11397.0,11397.0,11397.0,11391.0,11386.0,11386.0,11386.0,11386.0,11386.0,11386.0,11386.0,11386.0,11386.0,11386.0,11380.0,11380.0,11380.0,11380.0,11380.0,11380.0,11375.0,11375.0,11375.0,11375.0,11375.0,11375.0,11369.0,11369.0,11369.0,11369.0,11369.0,11369.0,11369.0,11369.0,11369.0,11369.0,11369.0,11369.0,11364.0,11364.0,11364.0,11364.0,11364.0,11364.0,11364.0,11364.0,11353.0,11353.0,11348.0,11348.0,11342.0,11337.0,11331.0,11326.0,11320.0,11320.0,11320.0,11315.0,11309.0,11298.0,11293.0,11287.0,11287.0,11287.0,11282.0,11282.0,11282.0,11282.0,11276.0,11265.0,11254.0,11254.0,11254.0,11254.0,11254.0,11249.0,11249.0,11249.0,11249.0,11238.0,11238.0,11238.0,11232.0,11227.0,11216.0,11216.0,11210.0,11205.0,11205.0,11200.0,11200.0,11194.0,11194.0,11194.0,11189.0,11189.0,11189.0,11183.0,11183.0,11183.0,11172.0,11172.0,11172.0,11167.0,11167.0,11167.0,11167.0,11167.0,11167.0,11167.0,11156.0,11156.0,11156.0,11150.0,11150.0,11150.0,11150.0,11150.0,11150.0,11150.0,11150.0,11150.0,11150.0,11145.0,11145.0,11145.0,11145.0,11145.0,11145.0,11145.0,11145.0,11145.0,11145.0,11139.0,11139.0,11139.0,11139.0,11139.0,11139.0,11139.0,11139.0,11139.0,11139.0,11139.0,11139.0,11139.0,11139.0,11134.0,11134.0,11134.0,11134.0,11134.0,11134.0,11134.0,11134.0,11134.0,11134.0,11134.0,11134.0,11134.0,11134.0,11134.0,11134.0,11134.0,11134.0,11134.0,11134.0,11134.0,11134.0,11134.0,11134.0,11134.0,11134.0,11134.0,11134.0,11134.0,11134.0,11134.0,11134.0,11134.0,11134.0,11128.0,11128.0,11128.0,11128.0,11128.0,11128.0,11128.0,11128.0,11128.0,11128.0,11128.0,11128.0,11128.0,11128.0,11128.0,11128.0,11128.0,11128.0,11128.0,11128.0,11128.0,11134.0,11134.0,11134.0,11134.0,11134.0,11134.0,11134.0,11134.0,11134.0,11134.0,11134.0,11134.0,11134.0,11134.0,11134.0,11134.0,11134.0,11134.0,11134.0,11134.0,11134.0,11134.0,11134.0,11134.0,11134.0,11134.0,11134.0,11134.0,11134.0,11134.0,11134.0,11134.0,11134.0,11134.0,11134.0,11134.0,11134.0,11134.0,11134.0,11134.0,11134.0,11134.0,11134.0,11134.0,11134.0,11134.0,11134.0,11134.0,11134.0,11134.0,11134.0,11134.0,11134.0,11134.0,11134.0,11134.0,11134.0,11134.0,11134.0,11134.0,11134.0,11134.0,11134.0,11134.0,11134.0,11134.0,11134.0,11134.0,11134.0,11134.0,11134.0,11134.0,11134.0,11134.0,11134.0,11134.0,11134.0,11134.0,11134.0,11134.0,11134.0,11134.0,11134.0,11134.0,11134.0,11134.0,11134.0,11134.0,11134.0,11134.0,11134.0,11134.0,11134.0,11134.0,11134.0,11134.0,11134.0,11134.0,11134.0,11134.0,11134.0,11134.0,11134.0,11134.0,11134.0,11134.0,11134.0,11134.0,11134.0,11134.0,11134.0,11134.0,11134.0,11134.0,11134.0,11134.0,11134.0,11134.0,11134.0,11134.0,11134.0,11134.0,11134.0,11134.0,11134.0,11134.0,11134.0,11134.0,11134.0,11134.0,11134.0,11134.0,11134.0,11134.0,11134.0,11134.0,11134.0,11134.0,11134.0,11134.0,11134.0,11134.0,11134.0,11134.0,11134.0,11134.0,11134.0,11134.0,11134.0,11134.0,11134.0,11134.0,11134.0,11134.0,11134.0,11134.0,11134.0,11134.0,11134.0,11134.0,11134.0,11134.0,11134.0,11134.0,11134.0,11134.0,11134.0,11134.0,11134.0,11134.0,11134.0,11134.0,11134.0,11134.0,11134.0,11134.0,11134.0,11134.0,11134.0,11134.0,11134.0,11134.0,11134.0,11134.0,11134.0,11134.0,11134.0,11134.0,11134.0,11134.0,11134.0,11134.0,11134.0,11134.0,11134.0,11134.0,11134.0,11134.0,11134.0,11134.0,11134.0,11134.0,11134.0,11134.0,11134.0,11134.0,11134.0,11134.0,11134.0,11134.0,11134.0,11134.0,11134.0,11134.0,11134.0,11134.0,11134.0,11134.0,11134.0,11134.0,11134.0,11134.0,11134.0,11134.0,11134.0,11134.0,11134.0,11134.0,11134.0,11134.0,11134.0,11134.0,11134.0,11134.0,11134.0,11134.0,11134.0,11134.0,11134.0,11134.0,11134.0,11134.0,11134.0,11134.0,11134.0,11128.0,11128.0,11128.0,11128.0,11128.0,11128.0,11128.0,11128.0,11128.0,11128.0,11128.0,11128.0,11128.0,11128.0,11128.0,11128.0,11128.0,11128.0,11128.0,11128.0,11128.0,11128.0,11128.0,11123.0,11123.0,11123.0,11117.0,11117.0,11117.0,11117.0,11117.0,11117.0,11117.0,11117.0,11117.0,11112.0,11112.0,11112.0,11112.0,11112.0,11112.0,11106.0,11106.0,11106.0,11106.0,11106.0,11106.0,11106.0,11106.0,11106.0,11106.0,11106.0,11106.0,11106.0,11106.0,11106.0,11106.0,11106.0,11106.0,11106.0,11106.0,11106.0,11106.0,11106.0,11106.0,11106.0,11106.0,11106.0,11106.0,11106.0,11106.0,11106.0,11106.0,11106.0,11106.0,11106.0,11106.0,11106.0,11106.0,11106.0,11106.0,11106.0,11106.0,11106.0,11106.0,11106.0,11106.0,11106.0,11106.0,11106.0,11106.0,11106.0,11106.0,11106.0,11112.0,11112.0,11112.0,11112.0,11112.0,11112.0,11112.0,11112.0,11117.0,11117.0,11117.0,11117.0,11117.0,11117.0,11117.0,11117.0,11117.0,11123.0,11123.0,11128.0,11128.0,11128.0,11128.0,11128.0,11128.0,11128.0,11128.0,11128.0,11128.0,11128.0,11128.0,11128.0,11128.0,11128.0,11128.0,11128.0,11128.0,11128.0,11128.0,11134.0,11134.0,11134.0,11134.0,11134.0,11134.0,11134.0,11134.0,11134.0,11134.0,11134.0,11134.0,11134.0,11134.0,11134.0,11134.0,11134.0,11134.0,11134.0,11134.0,11134.0,11134.0,11134.0,11134.0,11134.0,11139.0,11139.0,11139.0,11139.0,11139.0,11139.0,11139.0,11139.0,11139.0,11139.0,11139.0,11139.0,11139.0,11139.0,11145.0,11145.0,11145.0,11145.0,11145.0,11145.0,11145.0,11145.0,11145.0,11145.0,11145.0,11145.0,11145.0,11145.0,11145.0,11150.0,11150.0,11156.0,11156.0,11156.0,11156.0,11156.0,11156.0,11156.0,11156.0,11161.0,11161.0,11161.0,11161.0,11161.0,11167.0,11167.0,11167.0,11172.0,11172.0,11172.0,11172.0,11172.0,11172.0,11172.0,11172.0,11172.0,11172.0,11178.0,11178.0,11178.0,11178.0,11178.0,11178.0,11178.0,11183.0,11183.0,11183.0,11183.0,11183.0,11183.0,11183.0,11183.0,11183.0,11183.0,11183.0,11183.0,11183.0,11189.0,11189.0,11189.0,11189.0,11189.0,11194.0,11194.0,11194.0,11200.0,11200.0,11200.0,11200.0,11200.0,11205.0,11205.0,11205.0,11205.0,11205.0,11205.0,11205.0,11210.0,11210.0,11210.0,11210.0,11210.0,11210.0,11210.0,11210.0,11210.0,11210.0,11210.0,11210.0,11210.0,11210.0,11210.0,11210.0,11210.0,11210.0,11216.0,11221.0,11221.0,11221.0,11221.0,11221.0,11221.0,11227.0,11227.0,11227.0,11227.0,11232.0,11232.0,11232.0,11238.0,11238.0,11238.0,11238.0,11238.0,11238.0,11238.0,11238.0,11238.0,11238.0,11238.0,11238.0,11238.0,11238.0,11238.0,11238.0,11238.0,11238.0,11238.0,11238.0,11238.0,11238.0,11238.0,11238.0,11238.0,11238.0,11238.0,11238.0,11238.0,11238.0,11238.0,11238.0,11238.0,11238.0,11238.0,11238.0,11238.0,11238.0,11238.0,11238.0,11238.0,11238.0,11238.0,11238.0,11238.0,11238.0,11238.0,11238.0,11238.0,11238.0,11238.0,11238.0,11238.0,11238.0,11238.0,11238.0,11238.0,11238.0,11238.0,11238.0,11238.0,11238.0,11238.0,11238.0,11238.0,11238.0,11238.0,11238.0,11238.0,11238.0,11238.0,11238.0,11238.0,11238.0,11238.0,11238.0,11238.0,11238.0,11238.0,11238.0,11238.0,11238.0,11238.0,11238.0,11238.0,11238.0,11238.0,11238.0,11238.0,11238.0,11238.0,11238.0,11238.0,11238.0,11238.0,11238.0,11238.0,11238.0,11238.0,11238.0,11238.0,11238.0,11238.0,11238.0,11238.0,11238.0,11238.0,11238.0,11238.0,11238.0,11238.0,11238.0,11238.0,11238.0,11238.0,11238.0,11238.0,11238.0,11238.0,11238.0,11238.0,11238.0,11238.0,11238.0,11238.0,11238.0,11238.0,11238.0,11238.0,11238.0,11238.0,11238.0,11238.0,11238.0,11238.0,11238.0,11238.0,11238.0,11238.0,11238.0,11238.0,11238.0,11238.0,11238.0,11238.0,11232.0,11232.0,11227.0,11227.0,11221.0,11221.0,11221.0,11221.0,11221.0,11221.0,11210.0,11210.0,11210.0,11210.0,11210.0,11210.0,11210.0,11210.0,11210.0,11210.0,11210.0,11210.0,11210.0,11210.0,11210.0,11210.0,11210.0,11210.0,11205.0,11205.0,11205.0,11200.0,11200.0,11200.0,11200.0,11194.0,11194.0,11194.0,11194.0,11189.0,11183.0,11183.0,11183.0,11183.0,11183.0,11183.0,11183.0,11183.0,11178.0,11172.0,11172.0,11172.0,11172.0,11167.0,11167.0,11161.0,11161.0,11161.0,11156.0,11145.0,11145.0,11145.0,11145.0,11145.0,11145.0,11145.0,11145.0,11145.0,11139.0,11139.0,11134.0,11134.0,11128.0,11123.0,11123.0,11123.0,11117.0,11117.0,11117.0,11117.0,11117.0,11117.0,11117.0,11117.0,11117.0,11117.0,11117.0,11117.0,11117.0,11117.0,11117.0,11117.0,11117.0,11117.0,11117.0,11117.0,11117.0,11117.0,11117.0,11117.0,11117.0,11117.0,11117.0,11117.0,11117.0,11117.0,11117.0,11117.0,11117.0,11117.0,11117.0,11117.0,11117.0,11117.0,11117.0,11117.0,11117.0,11117.0,11117.0,11117.0,11117.0,11117.0,11117.0,11117.0,11117.0,11117.0,11117.0,11117.0,11117.0,11117.0,11117.0,11117.0,11117.0,11117.0,11117.0,11117.0,11117.0,11117.0,11117.0,11117.0,11117.0,11117.0,11117.0,11117.0,11117.0,11117.0,11117.0,11117.0,11117.0,11117.0,11117.0,11117.0,11117.0,11117.0,11117.0,11117.0,11117.0,11117.0,11117.0,11117.0,11117.0,11117.0,11117.0,11117.0,11117.0,11117.0,11117.0,11117.0,11117.0,11117.0,11117.0,11117.0,11117.0,11117.0,11117.0,11117.0,11123.0,11123.0,11123.0,11123.0,11123.0,11123.0,11123.0,11123.0,11123.0,11123.0,11123.0,11123.0,11123.0,11123.0,11123.0,11123.0,11123.0,11123.0,11123.0,11123.0,11123.0,11123.0,11123.0,11123.0,11123.0,11123.0,11123.0,11123.0,11123.0,11123.0,11123.0,11123.0,11123.0,11123.0,11123.0,11123.0,11123.0,11123.0,11123.0,11123.0,11123.0,11128.0,11128.0,11128.0,11128.0,11128.0,11128.0,11128.0,11134.0,11134.0,11134.0,11134.0,11134.0,11134.0,11134.0,11134.0,11134.0,11134.0,11134.0,11134.0,11134.0,11134.0,11134.0,11134.0,11134.0,11134.0,11134.0,11134.0,11134.0,11134.0,11134.0,11134.0,11134.0,11134.0,11139.0,11145.0,11145.0,11145.0,11145.0,11145.0,11145.0,11145.0,11145.0,11145.0,11145.0,11145.0,11145.0,11145.0,11145.0,11145.0,11145.0,11145.0,11145.0,11145.0,11145.0,11145.0,11145.0,11145.0,11145.0,11145.0,11145.0,11145.0,11145.0,11145.0,11145.0,11145.0,11145.0,11145.0,11145.0,11145.0,11145.0,11145.0,11145.0,11145.0,11145.0,11145.0,11145.0,11145.0,11145.0,11145.0,11145.0,11145.0,11145.0,11145.0,11145.0,11145.0,11145.0,11145.0,11145.0,11145.0,11145.0,11145.0,11145.0,11145.0,11145.0,11145.0,11145.0,11145.0,11145.0,11145.0,11145.0,11145.0,11145.0,11145.0,11145.0,11145.0,11145.0,11145.0,11145.0,11145.0,11145.0,11145.0,11145.0,11145.0,11145.0,11145.0,11145.0,11145.0,11145.0,11145.0,11145.0,11145.0,11145.0,11145.0,11145.0,11145.0,11145.0,11145.0,11145.0,11145.0,11145.0,11145.0,11145.0,11145.0,11145.0,11145.0,11145.0,11145.0,11145.0,11145.0,11145.0,11145.0,11145.0,11145.0,11145.0,11145.0,11145.0,11145.0,11145.0,11145.0,11145.0,11145.0,11145.0,11145.0,11145.0,11145.0,11145.0,11145.0,11145.0,11145.0,11145.0,11145.0,11145.0,11145.0,11145.0,11145.0,11145.0,11145.0,11145.0,11145.0,11145.0,11145.0,11145.0,11145.0,11145.0,11145.0,11139.0,11139.0,11139.0,11139.0,11139.0,11139.0,11139.0,11139.0,11139.0,11139.0,11139.0,11134.0,11134.0,11134.0,11134.0,11134.0,11134.0,11134.0,11134.0,11134.0,11134.0,11134.0,11134.0,11134.0,11134.0,11134.0,11134.0,11134.0,11134.0,11134.0,11134.0,11134.0,11134.0,11134.0,11134.0,11134.0,11134.0,11128.0,11128.0,11128.0,11128.0,11128.0,11128.0,11128.0,11128.0,11123.0,11123.0,11123.0,11123.0,11123.0,11123.0,11123.0,11123.0,11123.0,11123.0,11123.0,11123.0,11123.0,11123.0,11123.0,11123.0,11123.0,11123.0,11123.0,11123.0,11123.0,11123.0,11123.0,11123.0,11123.0,11123.0,11123.0,11123.0,11123.0,11123.0,11123.0,11123.0,11123.0,11123.0,11123.0,11123.0,11123.0,11123.0,11123.0,11123.0,11123.0,11123.0,11123.0,11123.0,11123.0,11123.0,11123.0,11123.0,11123.0,11123.0,11123.0,11123.0,11123.0,11123.0,11123.0,11123.0,11123.0,11123.0,11123.0,11123.0,11123.0,11123.0,11123.0,11123.0,11123.0,11123.0,11123.0,11123.0,11128.0,11128.0,11128.0,11128.0,11128.0,11128.0,11128.0,11134.0,11134.0,11134.0,11134.0,11134.0,11134.0,11134.0,11134.0,11134.0,11134.0,11134.0,11134.0,11134.0,11134.0,11134.0,11134.0,11134.0,11134.0,11134.0,11134.0,11134.0,11134.0,11134.0,11134.0,11134.0,11139.0,11139.0,11139.0,11139.0,11139.0,11139.0,11139.0,11139.0,11139.0,11139.0,11139.0,11139.0,11145.0,11145.0,11145.0,11145.0,11145.0,11145.0,11145.0,11145.0,11145.0,11145.0,11145.0,11145.0,11145.0,11145.0,11145.0,11145.0,11145.0,11145.0,11145.0,11145.0,11145.0,11145.0,11145.0,11150.0,11150.0,11150.0,11156.0,11156.0,11156.0,11161.0,11161.0,11161.0,11167.0,11167.0,11167.0,11167.0,11167.0,11167.0,11167.0,11167.0,11167.0,11167.0,11167.0,11172.0,11172.0,11178.0,11178.0,11178.0,11183.0,11189.0,11189.0,11189.0,11189.0,11189.0,11189.0,11189.0,11189.0,11189.0,11189.0,11189.0,11189.0,11194.0,11194.0,11194.0,11194.0,11194.0,11194.0,11194.0,11200.0,11200.0,11200.0,11200.0,11200.0,11205.0,11205.0,11205.0,11205.0,11205.0,11205.0,11205.0,11205.0,11205.0,11205.0,11205.0,11205.0,11205.0,11205.0,11205.0,11205.0,11205.0,11205.0,11205.0,11205.0,11205.0,11205.0,11205.0,11205.0,11205.0,11205.0,11205.0,11205.0,11205.0,11205.0,11205.0,11205.0,11216.0,11216.0,11216.0,11216.0,11216.0,11216.0,11216.0,11216.0,11216.0,11216.0,11216.0,11216.0,11216.0,11216.0,11216.0,11216.0,11216.0,11216.0,11216.0,11221.0,11221.0,11221.0,11221.0,11221.0,11221.0,11227.0,11227.0,11227.0,11227.0,11227.0,11232.0,11232.0,11238.0,11238.0,11238.0,11238.0,11238.0,11238.0,11238.0,11238.0,11238.0,11238.0,11238.0,11238.0,11238.0,11238.0,11238.0,11238.0,11238.0,11238.0,11238.0,11238.0,11238.0,11238.0,11238.0,11238.0,11238.0,11238.0,11238.0,11238.0,11238.0,11238.0,11238.0,11238.0,11238.0,11238.0,11238.0,11238.0,11238.0,11238.0,11238.0,11238.0,11238.0,11238.0,11238.0,11238.0,11238.0,11238.0,11238.0,11238.0,11238.0,11238.0,11238.0,11238.0,11238.0,11238.0,11238.0,11238.0,11238.0,11238.0,11238.0,11238.0,11238.0,11238.0,11238.0,11238.0,11238.0,11238.0,11238.0,11238.0,11238.0,11238.0,11238.0,11238.0,11238.0,11238.0,11238.0,11238.0,11238.0,11238.0,11238.0,11238.0,11238.0,11238.0,11238.0,11238.0,11238.0,11238.0,11238.0,11238.0,11238.0,11238.0,11238.0,11238.0,11238.0,11238.0,11238.0,11238.0,11238.0,11238.0,11238.0,11238.0,11238.0,11238.0,11238.0,11238.0,11238.0,11238.0,11238.0,11238.0,11238.0,11238.0,11238.0,11238.0,11238.0,11238.0,11238.0,11238.0,11238.0,11238.0,11238.0,11238.0,11238.0,11238.0,11238.0,11238.0,11238.0,11238.0,11238.0,11238.0,11238.0,11238.0,11238.0,11238.0,11232.0,11232.0,11227.0,11227.0,11227.0,11227.0,11227.0,11221.0,11221.0,11221.0,11221.0,11221.0,11216.0,11216.0,11216.0,11216.0,11216.0,11216.0,11216.0,11216.0,11216.0,11216.0,11216.0,11216.0,11216.0,11216.0,11216.0,11216.0,11205.0,11205.0,11205.0,11205.0,11205.0,11205.0,11205.0,11205.0,11205.0,11205.0,11205.0,11205.0,11205.0,11205.0,11205.0,11205.0,11205.0,11205.0,11205.0,11205.0,11205.0,11205.0,11205.0,11205.0,11205.0,11205.0,11205.0,11205.0,11205.0,11205.0,11205.0,11200.0,11200.0,11200.0,11200.0,11200.0,11194.0,11194.0,11189.0,11189.0,11189.0,11189.0,11189.0,11189.0,11189.0,11189.0,11189.0,11189.0,11183.0,11178.0,11172.0,11172.0,11167.0,11167.0,11167.0,11167.0,11167.0,11167.0,11167.0,11167.0,11167.0,11167.0,11167.0,11167.0,11167.0,11167.0,11167.0,11161.0,11161.0,11161.0,11161.0,11161.0,11161.0,11161.0,11161.0,11161.0,11161.0,11161.0,11161.0,11161.0,11161.0,11161.0,11161.0,11161.0,11161.0,11161.0,11161.0,11161.0,11161.0,11161.0,11161.0,11161.0,11161.0,11161.0,11161.0,11161.0,11161.0,11161.0,11161.0,11161.0,11161.0,11161.0,11161.0,11161.0,11161.0,11161.0,11161.0,11161.0,11161.0,11161.0,11161.0,11161.0,11161.0,11161.0,11161.0,11161.0,11161.0,11161.0,11161.0,11161.0,11161.0,11161.0,11161.0,11161.0,11161.0,11161.0,11161.0,11161.0,11161.0,11161.0,11161.0,11167.0,11167.0,11167.0,11167.0,11167.0,11167.0,11167.0,11167.0,11167.0,11167.0,11167.0,11167.0,11167.0,11167.0,11167.0,11167.0,11167.0,11167.0,11167.0,11167.0,11172.0,11172.0,11172.0,11172.0,11178.0,11178.0,11183.0,11183.0,11183.0,11183.0,11183.0,11189.0,11189.0,11189.0,11189.0,11189.0,11189.0,11189.0,11189.0,11194.0,11194.0,11194.0,11200.0,11200.0,11200.0,11200.0,11200.0,11200.0,11200.0,11200.0,11200.0,11200.0,11200.0,11205.0,11205.0,11205.0,11205.0,11205.0,11205.0,11205.0,11205.0,11205.0,11205.0,11205.0,11205.0,11205.0,11205.0,11205.0,11205.0,11205.0,11205.0,11205.0,11205.0,11205.0,11205.0,11205.0,11205.0,11210.0,11210.0,11210.0,11216.0,11221.0,11221.0,11221.0,11227.0,11227.0,11227.0,11227.0,11232.0,11232.0,11232.0,11232.0,11238.0,11238.0,11238.0,11238.0,11243.0,11249.0,11249.0,11249.0,11249.0,11249.0,11249.0,11249.0,11249.0,11249.0,11249.0,11249.0,11249.0,11249.0,11249.0,11249.0,11249.0,11249.0,11249.0,11249.0,11249.0,11249.0,11249.0,11249.0,11249.0,11249.0,11249.0,11249.0,11249.0,11249.0,11249.0,11249.0,11249.0,11249.0,11249.0,11249.0,11249.0,11249.0,11249.0,11249.0,11249.0,11249.0,11249.0,11249.0,11249.0,11249.0,11249.0,11249.0,11249.0,11249.0,11249.0,11249.0,11249.0,11249.0,11249.0,11249.0,11249.0,11249.0,11249.0,11249.0,11249.0,11249.0,11249.0,11249.0,11249.0,11249.0,11249.0,11249.0,11249.0,11249.0,11249.0,11249.0,11249.0,11249.0,11249.0,11249.0,11249.0,11249.0,11249.0,11249.0,11249.0,11249.0,11249.0,11249.0,11249.0,11249.0,11249.0,11249.0,11249.0,11249.0,11249.0,11249.0,11249.0,11249.0,11249.0,11249.0,11249.0,11249.0,11249.0,11249.0,11249.0,11249.0,11249.0,11249.0,11249.0,11249.0,11249.0,11249.0,11249.0,11249.0,11249.0,11249.0,11249.0,11249.0,11249.0,11249.0,11249.0,11249.0,11249.0,11249.0,11249.0,11249.0,11249.0,11249.0,11249.0,11249.0,11249.0,11249.0,11249.0,11249.0,11249.0,11249.0,11249.0,11249.0,11249.0,11249.0,11249.0,11249.0,11249.0,11249.0,11249.0,11249.0,11249.0,11249.0,11249.0,11249.0,11249.0,11249.0,11249.0,11249.0,11249.0,11249.0,11249.0,11249.0,11249.0,11249.0,11249.0,11249.0,11249.0,11249.0,11249.0,11249.0,11249.0,11249.0,11249.0,11249.0,11249.0,11249.0,11249.0,11249.0,11249.0,11249.0,11249.0,11249.0,11249.0,11249.0,11249.0,11249.0,11249.0,11249.0,11249.0,11249.0,11249.0,11249.0,11249.0,11249.0,11249.0,11249.0,11249.0,11249.0,11249.0,11249.0,11249.0,11249.0,11249.0,11249.0,11249.0,11249.0,11249.0,11249.0,11249.0,11249.0,11249.0,11249.0,11249.0,11249.0,11249.0,11249.0,11249.0,11249.0,11249.0,11249.0,11249.0,11249.0,11249.0,11249.0,11249.0,11249.0,11249.0,11249.0,11249.0,11254.0,11260.0,11260.0,11260.0,11265.0,11271.0,11271.0,11276.0,11276.0,11282.0,11287.0,11293.0,11293.0,11293.0,11293.0,11298.0,11298.0,11298.0,11298.0,11298.0,11304.0,11304.0,11304.0,11309.0,11309.0,11309.0,11309.0,11309.0,11309.0,11309.0,11309.0,11309.0,11309.0,11309.0,11309.0,11315.0,11315.0,11315.0,11315.0,11315.0,11315.0,11315.0,11315.0,11315.0,11315.0,11315.0,11315.0,11315.0,11315.0,11315.0,11315.0,11315.0,11315.0,11315.0,11315.0,11315.0,11315.0,11315.0,11315.0,11315.0,11315.0,11315.0,11315.0,11315.0,11315.0,11315.0,11315.0,11315.0,11315.0,11315.0,11315.0,11315.0,11315.0,11315.0,11315.0,11315.0,11315.0,11315.0,11315.0,11315.0,11315.0,11315.0,11315.0,11320.0,11320.0,11320.0,11320.0,11320.0,11320.0,11320.0,11320.0,11320.0,11320.0,11320.0,11320.0,11320.0,11320.0,11320.0,11320.0,11320.0,11320.0,11320.0,11320.0,11320.0,11326.0,11326.0,11326.0,11326.0,11326.0,11326.0,11326.0,11331.0,11331.0,11331.0,11331.0,11331.0,11331.0,11342.0,11342.0,11342.0,11342.0,11342.0,11342.0,11342.0,11342.0,11342.0,11342.0,11342.0,11342.0,11342.0,11342.0,11342.0,11342.0,11342.0,11342.0,11342.0,11342.0,11342.0,11342.0,11342.0,11342.0,11342.0,11342.0,11342.0,11342.0,11342.0,11342.0,11342.0,11342.0,11342.0,11342.0,11342.0,11342.0,11342.0,11342.0,11342.0,11342.0,11342.0,11342.0,11342.0,11348.0,11348.0,11348.0,11353.0,11353.0,11353.0,11353.0,11358.0,11358.0,11358.0,11358.0,11358.0,11358.0,11358.0,11358.0,11358.0,11358.0,11358.0,11364.0,11364.0,11364.0,11364.0,11364.0,11364.0,11364.0,11364.0,11364.0,11364.0,11364.0,11364.0,11364.0,11364.0,11364.0,11364.0,11364.0,11369.0,11369.0,11369.0,11369.0,11369.0,11369.0,11369.0,11369.0,11369.0,11369.0,11369.0,11369.0,11369.0,11369.0,11369.0,11369.0,11369.0,11369.0,11369.0,11369.0,11369.0,11369.0,11369.0,11369.0,11369.0,11369.0,11369.0,11369.0,11369.0,11369.0,11369.0,11369.0,11369.0,11369.0,11369.0,11369.0,11369.0,11369.0,11369.0,11369.0,11369.0,11369.0,11369.0,11369.0,11369.0,11369.0,11369.0,11369.0,11369.0,11369.0,11369.0,11369.0,11369.0,11369.0,11369.0,11369.0,11369.0,11369.0,11369.0,11369.0,11369.0,11369.0,11369.0,11369.0,11369.0,11369.0,11369.0,11369.0,11369.0,11369.0,11369.0,11369.0,11369.0,11369.0,11369.0,11369.0,11369.0,11369.0,11369.0,11369.0,11369.0,11369.0,11369.0,11369.0,11369.0,11369.0,11369.0,11369.0,11369.0,11369.0,11369.0,11369.0,11369.0,11369.0,11369.0,11369.0,11369.0,11369.0,11369.0,11369.0,11369.0,11369.0,11369.0,11369.0,11369.0,11369.0,11369.0,11369.0,11369.0,11369.0,11369.0,11369.0,11369.0,11369.0,11369.0,11369.0,11369.0,11369.0,11369.0,11369.0,11369.0,11369.0,11369.0,11369.0,11369.0,11369.0,11369.0,11369.0,11369.0,11369.0,11369.0,11369.0,11369.0,11369.0,11369.0,11369.0,11369.0,11369.0,11369.0,11369.0,11369.0,11369.0,11369.0,11369.0,11369.0,11369.0,11369.0,11369.0,11369.0,11369.0,11369.0,11369.0,11369.0,11369.0,11369.0,11369.0,11369.0,11369.0,11369.0,11369.0,11369.0,11369.0,11369.0,11369.0,11369.0,11369.0,11369.0,11369.0,11369.0,11369.0,11369.0,11369.0,11369.0,11369.0,11369.0,11369.0,11369.0,11369.0,11369.0,11369.0,11369.0,11369.0,11369.0,11369.0,11369.0,11369.0,11369.0,11369.0,11369.0,11369.0,11369.0,11369.0,11369.0,11369.0,11369.0,11369.0,11369.0,11369.0,11369.0,11369.0,11369.0,11369.0,11369.0,11369.0,11369.0,11369.0,11369.0,11369.0,11369.0,11369.0,11369.0,11369.0,11369.0,11369.0,11369.0,11369.0,11369.0,11369.0,11369.0,11369.0,11369.0,11369.0,11369.0,11369.0,11369.0,11369.0,11369.0,11369.0,11369.0,11369.0,11369.0,11369.0,11369.0,11369.0,11364.0,11364.0,11364.0,11364.0,11364.0,11364.0,11364.0,11364.0,11364.0,11364.0,11364.0,11364.0,11364.0,11364.0,11364.0,11358.0,11358.0,11358.0,11358.0,11358.0,11358.0,11358.0,11358.0,11358.0,11358.0,11353.0,11353.0,11348.0,11348.0,11342.0,11342.0,11342.0,11342.0,11342.0,11342.0,11342.0,11342.0,11342.0,11342.0,11342.0,11342.0,11342.0,11342.0,11342.0,11342.0,11342.0,11342.0,11342.0,11342.0,11331.0,11331.0,11331.0,11331.0,11331.0,11331.0,11326.0,11326.0,11326.0,11326.0,11320.0,11320.0,11320.0,11320.0,11320.0,11320.0,11320.0,11309.0,11309.0,11304.0,11282.0,11282.0,11265.0,11134.0,11073.0,11030.0,11030.0,11030.0,11030.0,11030.0,11030.0,11030.0,11030.0,11030.0,11030.0,11030.0,11030.0,11030.0,11030.0,11030.0,11030.0,11030.0,11030.0,11030.0,11030.0,11030.0,11030.0,11030.0,11030.0,11030.0,11030.0,11030.0,11030.0,11030.0,11030.0,11030.0,11030.0,11030.0,11030.0,11030.0,11030.0,11030.0,11030.0,11030.0,11030.0,11030.0,11030.0,11030.0,11030.0,11030.0,11030.0,11030.0,11030.0,11030.0,11030.0,11030.0,11030.0,11030.0,11030.0,11030.0,11030.0,11030.0,11030.0,11030.0,11030.0,11030.0,11030.0,11030.0,11030.0,11030.0,11030.0,11030.0,11030.0,11030.0,11030.0,11030.0,11030.0,11030.0,11030.0,11030.0,11030.0,11030.0,11030.0,11030.0,11030.0,11030.0,11030.0,11030.0,11030.0,11030.0,11030.0,11030.0,11030.0,11030.0,11030.0,11030.0,11030.0,11030.0,11030.0,11030.0,11030.0,11030.0,11030.0,11030.0,11030.0,11030.0,11030.0,11030.0,11030.0,11030.0,11030.0,11030.0,11030.0,11030.0,11030.0,11030.0,11030.0,11030.0,11030.0,11030.0,11030.0,11030.0,11030.0,11030.0,11030.0,11030.0,11030.0,11030.0,11030.0,11030.0,11030.0,11030.0,11030.0,11030.0,11030.0,11030.0,11030.0,11030.0,11030.0,11030.0,11030.0,11030.0,11030.0,11030.0,11030.0,11030.0,11030.0,11030.0,11030.0,11030.0,11030.0,11030.0,11030.0,11030.0,11030.0,11030.0,11030.0,11030.0,11030.0,11030.0,11030.0,11030.0,11030.0,11030.0,11030.0,11030.0,11030.0,11030.0,11030.0,11030.0,11030.0,11030.0,11030.0,11030.0,11030.0,11030.0,11030.0,11030.0,11030.0,11030.0,11030.0,11030.0,11030.0,11030.0,11030.0,11030.0,11030.0,11030.0,11030.0,11030.0,11030.0,11030.0,11030.0,11030.0,11030.0,11030.0,11030.0,11030.0,11030.0,11030.0,11030.0,11030.0,11030.0,11030.0,11030.0,11030.0,11030.0,11030.0,11030.0,11030.0,11030.0,11030.0,11030.0,11030.0,11030.0,11030.0,11030.0,11030.0,11030.0,11030.0,11030.0,11030.0,11030.0,11030.0,11030.0,11030.0,11030.0,11030.0,11030.0,11030.0,11030.0,11030.0,11030.0,11030.0,11030.0,11030.0,11030.0,11030.0,11030.0,11030.0,11030.0,11030.0,11030.0,11030.0,11030.0,11030.0,11030.0,11030.0,11030.0,11030.0,11030.0,11030.0,11030.0,11030.0,11030.0,11030.0,11030.0,11030.0,11030.0,11030.0,11030.0,11030.0,11030.0,11030.0,11030.0,11030.0,11030.0,11030.0,11030.0,11030.0,11030.0,11030.0,11030.0,11030.0,11030.0,11030.0,11030.0,11030.0,11030.0,11030.0,11030.0,11030.0,11030.0,11030.0,11030.0,11030.0,11030.0,11030.0,11030.0,11030.0,11030.0,11030.0,11030.0,11030.0,11030.0,11030.0,11030.0,11030.0,11030.0,11030.0,11030.0,11030.0,11030.0,11030.0,11030.0,11030.0,11030.0,11030.0,11030.0,11030.0,11030.0,11035.0,11035.0,11035.0,11035.0,11035.0,11035.0,11035.0,11041.0,11041.0,11041.0,11041.0,11041.0,11041.0,11041.0,11046.0,11046.0,11051.0,11051.0,11057.0,11057.0,11057.0,11057.0,11057.0,11057.0,11057.0,11057.0,11057.0,11057.0,11057.0,11057.0,11057.0,11057.0,11057.0,11057.0,11057.0,11062.0,11062.0,11062.0,11062.0,11062.0,11062.0,11062.0,11062.0,11062.0,11062.0,11068.0,11068.0,11068.0,11073.0,11073.0,11079.0,11084.0,11084.0,11084.0,11084.0,11084.0,11090.0,11090.0,11090.0,11090.0,11090.0,11090.0,11090.0,11090.0,11090.0,11090.0,11090.0,11090.0,11090.0,11090.0,11090.0,11090.0,11090.0,11090.0,11090.0,11090.0,11090.0,11090.0,11090.0,11090.0,11090.0,11090.0,11090.0,11090.0,11090.0,11090.0,11090.0,11090.0,11090.0,11090.0,11090.0,11090.0,11090.0,11090.0,11090.0,11090.0,11090.0,11090.0,11090.0,11090.0,11090.0,11090.0,11090.0,11090.0,11090.0,11090.0,11090.0,11090.0,11090.0,11090.0,11090.0,11090.0,11090.0,11090.0,11090.0,11090.0,11090.0,11090.0,11090.0,11090.0,11090.0,11090.0,11090.0,11090.0,11090.0,11090.0,11090.0,11090.0,11090.0,11090.0,11090.0,11090.0,11090.0,11090.0,11090.0,11090.0,11090.0,11090.0,11090.0,11090.0,11090.0,11090.0,11090.0,11090.0,11090.0,11090.0,11090.0,11090.0,11090.0,11090.0,11090.0,11090.0,11090.0,11090.0,11090.0,11090.0,11095.0,11095.0,11095.0,11095.0,11095.0,11095.0,11095.0,11095.0,11095.0,11095.0,11095.0,11095.0,11095.0,11095.0,11095.0,11095.0,11095.0,11095.0,11095.0,11095.0,11095.0,11095.0,11101.0,11101.0,11101.0,11106.0,11106.0,11106.0,11106.0,11106.0,11112.0,11112.0,11112.0,11112.0,11112.0,11112.0,11112.0,11112.0,11112.0,11112.0,11112.0,11112.0,11112.0,11112.0,11112.0,11112.0,11112.0,11112.0,11112.0,11112.0,11112.0,11112.0,11112.0,11112.0,11112.0,11112.0,11112.0,11112.0,11112.0,11112.0,11112.0,11112.0,11112.0,11112.0,11112.0,11112.0,11112.0,11117.0,11117.0,11117.0,11117.0,11117.0,11117.0,11117.0,11117.0,11117.0,11117.0,11117.0,11117.0,11123.0,11123.0,11123.0,11123.0,11123.0,11123.0,11123.0,11123.0,11123.0,11123.0,11128.0,11128.0,11128.0,11128.0,11128.0,11128.0,11134.0,11139.0,11139.0,11139.0,11139.0,11139.0,11139.0,11139.0,11139.0,11139.0,11139.0,11139.0,11139.0,11139.0,11139.0,11139.0,11139.0,11139.0,11150.0,11150.0,11150.0,11150.0,11156.0,11156.0,11156.0,11161.0,11161.0,11161.0,11172.0,11172.0,11172.0,11172.0,11178.0,11183.0,11183.0,11183.0,11183.0,11183.0,11183.0,11183.0,11189.0,11189.0,11189.0,11189.0,11189.0,11189.0,11189.0,11189.0,11189.0,11189.0,11189.0,11189.0,11189.0,11194.0,11194.0,11194.0,11200.0,11200.0,11200.0,11200.0,11200.0,11200.0,11200.0,11200.0,11200.0,11205.0,11205.0,11205.0,11205.0,11205.0,11205.0,11205.0,11205.0,11205.0,11205.0,11205.0,11205.0,11210.0,11210.0,11210.0,11210.0,11210.0,11210.0,11210.0,11210.0,11210.0,11210.0,11210.0,11210.0,11210.0,11210.0,11210.0,11210.0,11210.0,11210.0,11216.0,11216.0,11216.0,11216.0,11216.0,11216.0,11216.0,11216.0,11227.0,11227.0,11227.0,11227.0,11227.0,11227.0,11227.0,11227.0,11227.0,11227.0,11227.0,11227.0,11227.0,11227.0,11227.0,11227.0,11227.0,11227.0,11227.0,11227.0,11227.0,11227.0,11227.0,11227.0,11227.0,11227.0,11227.0,11227.0,11227.0,11227.0,11227.0,11227.0,11227.0,11227.0,11227.0,11227.0,11227.0,11227.0,11227.0,11227.0,11227.0,11227.0,11227.0,11227.0,11227.0,11227.0,11227.0,11227.0,11227.0,11227.0,11227.0,11227.0,11227.0,11227.0,11227.0,11227.0,11227.0,11227.0,11227.0,11227.0,11227.0,11227.0,11227.0,11227.0,11227.0,11227.0,11227.0,11227.0,11227.0,11227.0,11227.0,11227.0,11227.0,11227.0,11227.0,11227.0,11227.0,11227.0,11227.0,11227.0,11227.0,11227.0,11227.0,11227.0,11227.0,11227.0,11227.0,11227.0,11227.0,11227.0,11227.0,11227.0,11227.0,11227.0,11227.0,11227.0,11227.0,11227.0,11227.0,11227.0,11227.0,11227.0,11227.0,11227.0,11227.0,11227.0,11227.0,11227.0,11227.0,11227.0,11227.0,11227.0,11227.0,11227.0,11227.0,11227.0,11227.0,11227.0,11227.0,11227.0,11227.0,11227.0,11227.0,11227.0,11227.0,11227.0,11227.0,11227.0,11227.0,11227.0,11227.0,11227.0,11227.0,11227.0,11227.0,11227.0,11227.0,11227.0,11227.0,11227.0,11227.0,11227.0,11227.0,11227.0,11227.0,11216.0,11216.0,11216.0,11216.0,11216.0,11216.0,11216.0,11216.0,11210.0,11210.0,11210.0,11210.0,11210.0,11210.0,11210.0,11210.0,11210.0,11210.0,11210.0,11210.0,11210.0,11210.0,11210.0,11210.0,11210.0,11210.0,11205.0,11205.0,11205.0,11205.0,11205.0,11205.0,11205.0,11200.0,11200.0,11200.0,11200.0,11200.0,11200.0,11200.0,11200.0,11200.0,11194.0,11194.0,11189.0,11189.0,11183.0,11183.0,11178.0,11172.0,11172.0,11161.0,11161.0,11156.0,11150.0,11150.0,11150.0,11139.0,11139.0,11139.0,11139.0,11128.0,11128.0,11128.0,11123.0,11123.0,11123.0,11123.0,11123.0,11123.0,11123.0,11123.0,11123.0,11123.0,11123.0,11123.0,11123.0,11123.0,11123.0,11123.0,11123.0,11123.0,11123.0,11123.0,11123.0,11123.0,11123.0,11123.0,11123.0,11123.0,11123.0,11123.0,11123.0,11123.0,11123.0,11123.0,11123.0,11123.0,11123.0,11123.0,11123.0,11123.0,11123.0,11123.0,11123.0,11123.0,11123.0,11123.0,11123.0,11123.0,11123.0,11123.0,11123.0,11123.0,11123.0,11123.0,11123.0,11123.0,11123.0,11123.0,11123.0,11123.0,11123.0,11123.0,11123.0,11123.0,11123.0,11123.0,11123.0,11123.0,11123.0,11123.0,11123.0,11123.0,11123.0,11123.0,11123.0,11123.0,11123.0,11123.0,11123.0,11123.0,11123.0,11123.0,11123.0,11123.0,11123.0,11123.0,11123.0,11123.0,11123.0,11123.0,11123.0,11123.0,11123.0,11123.0,11123.0,11123.0,11128.0,11128.0,11128.0,11128.0,11134.0,11134.0,11134.0,11134.0,11139.0,11139.0,11139.0,11139.0,11139.0,11139.0,11139.0,11139.0,11139.0,11139.0,11139.0,11139.0,11139.0,11139.0,11139.0,11139.0,11139.0,11139.0,11139.0,11139.0,11139.0,11139.0,11139.0,11139.0,11139.0,11139.0,11139.0,11145.0,11145.0,11145.0,11145.0,11145.0,11145.0,11145.0,11145.0,11145.0,11145.0,11145.0,11145.0,11145.0,11145.0,11145.0,11145.0,11145.0,11145.0,11145.0,11145.0,11145.0,11145.0,11145.0,11145.0,11145.0,11145.0,11145.0,11145.0,11145.0,11145.0,11145.0,11145.0,11145.0,11145.0,11145.0,11145.0,11150.0,11150.0,11150.0,11150.0,11150.0,11150.0,11150.0,11150.0,11150.0,11150.0,11150.0,11150.0,11150.0,11150.0,11150.0,11150.0,11150.0,11150.0,11150.0,11150.0,11150.0,11150.0,11156.0,11156.0,11156.0,11156.0,11156.0,11156.0,11156.0,11156.0,11156.0,11156.0,11156.0,11156.0,11156.0,11156.0,11156.0,11161.0,11161.0,11161.0,11161.0,11161.0,11161.0,11161.0,11161.0,11161.0,11161.0,11161.0,11161.0,11161.0,11161.0,11161.0,11161.0,11161.0,11161.0,11161.0,11161.0,11161.0,11161.0,11161.0,11161.0,11161.0,11161.0,11161.0,11161.0,11161.0,11161.0,11161.0,11161.0,11161.0,11161.0,11161.0,11161.0,11161.0,11161.0,11161.0,11161.0,11161.0,11161.0,11161.0,11161.0,11161.0,11161.0,11161.0,11161.0,11161.0,11161.0,11161.0,11161.0,11161.0,11161.0,11161.0,11161.0,11161.0,11161.0,11161.0,11161.0,11161.0,11161.0,11161.0,11161.0,11161.0,11161.0,11161.0,11161.0,11161.0,11161.0,11161.0,11161.0,11161.0,11161.0,11161.0,11161.0,11161.0,11161.0,11161.0,11161.0,11161.0,11161.0,11161.0,11161.0,11161.0,11161.0,11161.0,11161.0,11161.0,11161.0,11161.0,11161.0,11161.0,11161.0,11161.0,11161.0,11161.0,11161.0,11161.0,11161.0,11161.0,11161.0,11161.0,11161.0,11161.0,11161.0,11161.0,11161.0,11161.0,11161.0,11161.0,11161.0,11161.0,11161.0,11161.0,11161.0,11161.0,11161.0,11161.0,11161.0,11161.0,11161.0,11161.0,11161.0,11161.0,11161.0,11161.0,11161.0,11161.0,11161.0,11161.0,11161.0,11161.0,11161.0,11161.0,11161.0,11161.0,11161.0,11161.0,11161.0,11161.0,11161.0,11161.0,11161.0,11161.0,11161.0,11161.0,11161.0,11161.0,11161.0,11161.0,11161.0,11161.0,11161.0,11161.0,11161.0,11161.0,11161.0,11161.0,11161.0,11161.0,11161.0,11161.0,11161.0,11161.0,11161.0,11161.0,11161.0,11161.0,11161.0,11161.0,11161.0,11161.0,11161.0,11161.0,11161.0,11161.0,11161.0,11161.0,11161.0,11161.0,11161.0,11161.0,11161.0,11161.0,11161.0,11161.0,11161.0,11161.0,11161.0,11161.0,11161.0,11161.0,11161.0,11161.0,11161.0,11161.0,11161.0,11161.0,11161.0,11161.0,11161.0,11161.0,11161.0,11161.0,11161.0,11161.0,11161.0,11161.0,11161.0,11161.0,11161.0,11161.0,11161.0,11161.0,11161.0,11161.0,11161.0,11161.0,11161.0,11161.0,11161.0,11161.0,11161.0,11161.0,11161.0,11161.0,11161.0,11161.0,11161.0,11161.0,11161.0,11161.0,11161.0,11161.0,11161.0,11161.0,11161.0,11161.0,11161.0,11161.0,11161.0,11161.0,11161.0,11161.0,11161.0,11161.0,11161.0,11161.0,11161.0,11161.0,11161.0,11161.0,11161.0,11161.0,11161.0,11161.0,11161.0,11161.0,11161.0,11161.0,11161.0,11161.0,11161.0,11161.0,11161.0,11161.0,11161.0,11161.0,11161.0,11161.0,11161.0,11161.0,11161.0,11161.0,11161.0,11161.0,11161.0,11161.0,11161.0,11161.0,11161.0,11161.0,11161.0,11161.0,11161.0,11161.0,11161.0,11161.0,11161.0,11161.0,11161.0,11161.0,11161.0,11161.0,11161.0,11161.0,11161.0,11161.0,11161.0,11161.0,11161.0,11161.0,11161.0,11161.0,11161.0,11161.0,11161.0,11161.0,11161.0,11161.0,11161.0,11161.0,11161.0,11161.0,11161.0,11161.0,11161.0,11161.0,11161.0,11161.0,11161.0,11167.0,11167.0,11167.0,11167.0,11167.0,11167.0,11167.0,11167.0,11167.0,11167.0,11172.0,11172.0,11172.0,11172.0,11172.0,11172.0,11172.0,11172.0,11172.0,11172.0,11172.0,11172.0,11172.0,11172.0,11172.0,11172.0,11172.0,11172.0,11172.0,11172.0,11178.0,11178.0,11178.0,11178.0,11178.0,11178.0,11183.0,11183.0,11189.0,11189.0,11194.0,11194.0,11194.0,11194.0,11194.0,11200.0,11200.0,11200.0,11205.0,11205.0,11205.0,11205.0,11205.0,11205.0,11205.0,11205.0,11205.0,11210.0,11210.0,11210.0,11210.0,11210.0,11210.0,11216.0,11216.0,11216.0,11221.0,11221.0,11221.0,11221.0,11221.0,11221.0,11221.0,11221.0,11221.0,11227.0,11227.0,11227.0,11227.0,11227.0,11227.0,11227.0,11227.0,11227.0,11227.0,11227.0,11227.0,11227.0,11232.0,11232.0,11232.0,11232.0,11232.0,11232.0,11232.0,11238.0,11238.0,11238.0,11238.0,11243.0,11243.0,11243.0,11243.0,11249.0,11249.0,11249.0,11249.0,11249.0,11249.0,11254.0,11254.0,11254.0,11260.0,11260.0,11260.0,11260.0,11265.0,11265.0,11265.0,11265.0,11265.0,11271.0,11271.0,11271.0,11271.0,11276.0,11276.0,11276.0,11276.0,11276.0,11276.0,11276.0,11276.0,11276.0,11282.0,11282.0,11282.0,11282.0,11282.0,11287.0,11287.0,11293.0,11298.0,11298.0,11298.0,11298.0,11298.0,11298.0,11304.0,11304.0,11304.0,11304.0,11304.0,11304.0,11304.0,11304.0,11309.0,11309.0,11309.0,11309.0,11309.0,11309.0,11309.0,11309.0,11309.0,11309.0,11309.0,11309.0,11309.0,11309.0,11309.0,11309.0,11309.0,11309.0,11309.0,11309.0,11309.0,11309.0,11309.0,11309.0,11309.0,11315.0,11315.0,11315.0,11315.0,11315.0,11315.0,11315.0,11315.0,11315.0,11315.0,11315.0,11315.0,11315.0,11315.0,11315.0,11315.0,11315.0,11315.0,11315.0,11315.0,11315.0,11315.0,11315.0,11315.0,11315.0,11315.0,11315.0,11315.0,11315.0,11315.0,11315.0,11315.0,11315.0,11315.0,11315.0,11315.0,11315.0,11315.0,11315.0,11315.0,11315.0,11315.0,11315.0,11315.0,11315.0,11315.0,11315.0,11315.0,11315.0,11315.0,11315.0,11315.0,11315.0,11315.0,11315.0,11315.0,11315.0,11315.0,11315.0,11315.0,11315.0,11315.0,11315.0,11315.0,11315.0,11315.0,11315.0,11315.0,11315.0,11315.0,11315.0,11315.0,11315.0,11315.0,11315.0,11315.0,11315.0,11315.0,11315.0,11315.0,11315.0,11315.0,11315.0,11315.0,11315.0,11315.0,11315.0,11315.0,11315.0,11315.0,11315.0,11315.0,11315.0,11315.0,11315.0,11315.0,11315.0,11315.0,11315.0,11315.0,11315.0,11315.0,11315.0,11315.0,11315.0,11315.0,11315.0,11315.0,11315.0,11315.0,11315.0,11315.0,11315.0,11315.0,11315.0,11315.0,11315.0,11315.0,11315.0,11315.0,11315.0,11315.0,11315.0,11315.0,11315.0,11315.0,11315.0,11315.0,11315.0,11315.0,11315.0,11315.0,11315.0,11315.0,11315.0,11315.0,11315.0,11315.0,11315.0,11315.0,11315.0,11309.0,11309.0,11309.0,11309.0,11309.0,11309.0,11309.0,11309.0,11309.0,11309.0,11309.0,11309.0,11309.0,11309.0,11309.0,11309.0,11309.0,11309.0,11309.0,11309.0,11309.0,11309.0,11304.0,11304.0,11304.0,11304.0,11304.0,11304.0,11304.0,11298.0,11298.0,11298.0,11293.0,11287.0,11282.0,11282.0,11282.0,11276.0,11276.0,11276.0,11276.0,11276.0,11271.0,11265.0,11265.0,11260.0,11260.0,11254.0,11254.0,11249.0,11243.0,11238.0,11238.0,11238.0,11221.0,11221.0,11221.0,11216.0,11216.0,11210.0,11210.0,11210.0,11210.0,11205.0,11205.0,11205.0,11205.0,11194.0,11194.0,11194.0,11194.0,11194.0,11189.0,11178.0,11178.0,11178.0,11178.0,11172.0,11172.0,11172.0,11172.0,11172.0,11167.0,11167.0,11161.0,11161.0,11161.0,11161.0,11161.0,11161.0,11161.0,11161.0,11161.0,11161.0,11161.0,11161.0,11161.0,11161.0,11161.0,11161.0,11161.0,11161.0,11161.0,11161.0,11161.0,11161.0,11161.0,11161.0,11161.0,11161.0,11161.0,11161.0,11161.0,11161.0,11161.0,11161.0,11161.0,11161.0,11161.0,11161.0,11161.0,11161.0,11161.0,11161.0,11161.0,11161.0,11161.0,11161.0,11161.0,11161.0,11161.0,11161.0,11161.0,11161.0,11161.0,11161.0,11161.0,11161.0,11161.0,11161.0,11161.0,11161.0,11161.0,11161.0,11161.0,11161.0,11161.0,11161.0,11161.0,11161.0,11161.0,11161.0,11161.0,11161.0,11161.0,11161.0,11161.0,11161.0,11161.0,11161.0,11161.0,11161.0,11161.0,11161.0,11161.0,11161.0,11161.0,11161.0,11161.0,11161.0,11161.0,11167.0,11167.0,11167.0,11167.0,11167.0,11167.0,11167.0,11167.0,11167.0,11172.0,11172.0,11172.0,11178.0,11178.0,11178.0,11183.0,11189.0,11189.0,11189.0,11189.0,11189.0,11189.0,11189.0,11189.0,11194.0,11194.0,11194.0,11194.0,11194.0,11200.0,11205.0,11205.0,11205.0,11205.0,11205.0,11205.0,11205.0,11205.0,11210.0,11210.0,11210.0,11210.0,11210.0,11210.0,11216.0,11216.0,11221.0,11221.0,11221.0,11221.0,11227.0,11227.0,11227.0,11238.0,11238.0,11238.0,11238.0,11238.0,11238.0,11238.0,11238.0,11238.0,11238.0,11238.0,11238.0,11238.0,11238.0,11238.0,11238.0,11238.0,11243.0,11243.0,11243.0,11243.0,11243.0,11243.0,11243.0,11249.0,11249.0,11249.0,11254.0,11254.0,11254.0,11260.0,11260.0,11260.0,11260.0,11260.0,11260.0,11260.0,11260.0,11265.0,11265.0,11265.0,11265.0,11265.0,11265.0,11265.0,11271.0,11271.0,11271.0,11271.0,11271.0,11271.0,11271.0,11276.0,11276.0,11276.0,11276.0,11276.0,11276.0,11282.0,11282.0,11282.0,11282.0,11282.0,11282.0,11282.0,11282.0,11282.0,11282.0,11282.0,11282.0,11282.0,11282.0,11282.0,11282.0,11282.0,11282.0,11282.0,11282.0,11282.0,11282.0,11282.0,11282.0,11282.0,11282.0,11282.0,11282.0,11282.0,11282.0,11282.0,11282.0,11282.0,11282.0,11282.0,11282.0,11282.0,11282.0,11282.0,11282.0,11282.0,11282.0,11282.0,11282.0,11282.0,11282.0,11282.0,11282.0,11282.0,11282.0,11282.0,11282.0,11282.0,11282.0,11282.0,11282.0,11282.0,11282.0,11282.0,11282.0,11282.0,11282.0,11282.0,11282.0,11282.0,11282.0,11282.0,11282.0,11282.0,11282.0,11282.0,11282.0,11282.0,11282.0,11282.0,11282.0,11282.0,11282.0,11282.0,11282.0,11282.0,11282.0,11282.0,11282.0,11282.0,11282.0,11282.0,11282.0,11282.0,11282.0,11282.0,11282.0,11282.0,11282.0,11282.0,11282.0,11282.0,11282.0,11282.0,11282.0,11282.0,11282.0,11282.0,11282.0,11282.0,11282.0,11282.0,11282.0,11282.0,11282.0,11282.0,11282.0,11282.0,11282.0,11282.0,11282.0,11282.0,11282.0,11282.0,11282.0,11282.0,11282.0,11282.0,11282.0,11282.0,11282.0,11282.0,11282.0,11282.0,11282.0,11282.0,11282.0,11276.0,11276.0,11276.0,11276.0,11276.0,11271.0,11271.0,11271.0,11271.0,11271.0,11271.0,11271.0,11271.0,11271.0,11265.0,11265.0,11265.0,11265.0,11265.0,11265.0,11265.0,11260.0,11260.0,11260.0,11260.0,11260.0,11260.0,11260.0,11260.0,11260.0,11260.0,11260.0,11254.0,11254.0,11254.0,11249.0,11249.0,11249.0,11243.0,11243.0,11243.0,11243.0,11243.0,11243.0,11238.0,11238.0,11238.0,11238.0,11238.0,11238.0,11238.0,11238.0,11238.0,11238.0,11238.0,11238.0,11238.0,11238.0,11238.0,11238.0,11238.0,11227.0,11227.0,11227.0,11227.0,11227.0,11227.0,11227.0,11227.0,11227.0,11227.0,11227.0,11227.0,11227.0,11227.0,11227.0,11227.0,11227.0,11227.0,11227.0,11227.0,11227.0,11227.0,11227.0,11227.0,11227.0,11227.0,11227.0,11227.0,11227.0,11227.0,11227.0,11227.0,11227.0,11227.0,11227.0,11227.0,11227.0,11227.0,11227.0,11227.0,11227.0,11227.0,11227.0,11227.0,11227.0,11227.0,11227.0,11227.0,11227.0,11227.0,11227.0,11227.0,11227.0,11227.0,11227.0,11227.0,11227.0,11227.0,11227.0,11227.0,11227.0,11227.0,11227.0,11227.0,11227.0,11227.0,11227.0,11232.0,11238.0,11238.0,11238.0,11238.0,11238.0,11238.0,11238.0,11238.0,11238.0,11238.0,11238.0,11238.0,11238.0,11238.0,11238.0,11238.0,11243.0,11243.0,11243.0,11243.0,11243.0,11243.0,11249.0,11249.0,11249.0,11249.0,11249.0,11249.0,11254.0,11254.0,11254.0,11254.0,11260.0,11260.0,11260.0,11260.0,11260.0,11260.0,11260.0,11260.0,11260.0,11260.0,11260.0,11260.0,11260.0,11265.0,11265.0,11265.0,11265.0,11265.0,11265.0,11271.0,11271.0,11271.0,11271.0,11271.0,11271.0,11271.0,11271.0,11271.0,11271.0,11276.0,11276.0,11276.0,11276.0,11276.0,11276.0,11276.0,11276.0,11276.0,11276.0,11276.0,11276.0,11276.0,11276.0,11276.0,11276.0,11276.0,11276.0,11276.0,11276.0,11276.0,11276.0,11276.0,11276.0,11276.0,11276.0,11276.0,11276.0,11276.0,11276.0,11276.0,11276.0,11276.0,11276.0,11276.0,11276.0,11276.0,11276.0,11276.0,11282.0,11282.0,11282.0,11282.0,11282.0,11282.0,11282.0,11282.0,11282.0,11282.0,11282.0,11282.0,11282.0,11282.0,11282.0,11282.0,11282.0,11282.0,11282.0,11282.0,11282.0,11282.0,11282.0,11282.0,11287.0,11287.0,11287.0,11287.0,11287.0,11293.0,11293.0,11293.0,11298.0,11298.0,11298.0,11298.0,11298.0,11298.0,11298.0,11298.0,11304.0,11304.0,11304.0,11304.0,11309.0,11309.0,11309.0,11309.0,11309.0,11309.0,11309.0,11315.0,11315.0,11315.0,11315.0,11315.0,11315.0,11315.0,11315.0,11315.0,11315.0,11315.0,11315.0,11315.0,11320.0,11326.0,11326.0,11326.0,11326.0,11331.0,11331.0,11331.0,11331.0,11331.0,11331.0,11331.0,11331.0,11331.0,11331.0,11331.0,11331.0,11331.0,11331.0,11331.0,11331.0,11331.0,11331.0,11331.0,11331.0,11331.0,11331.0,11331.0,11331.0,11331.0,11331.0,11331.0,11331.0,11331.0,11331.0,11331.0,11331.0,11331.0,11331.0,11331.0,11331.0,11331.0,11331.0,11331.0,11331.0,11331.0,11331.0,11331.0,11331.0,11331.0,11331.0,11331.0,11331.0,11331.0,11331.0,11331.0,11331.0,11331.0,11331.0,11331.0,11331.0,11331.0,11331.0,11331.0,11331.0,11331.0,11331.0,11331.0,11331.0,11331.0,11331.0,11331.0,11331.0,11331.0,11331.0,11331.0,11331.0,11331.0,11331.0,11331.0,11331.0,11331.0,11331.0,11331.0,11331.0,11331.0,11331.0,11331.0,11331.0,11331.0,11331.0,11331.0,11331.0,11331.0,11331.0,11331.0,11331.0,11331.0,11331.0,11331.0,11331.0,11331.0,11331.0,11331.0,11331.0,11331.0,11331.0,11331.0,11331.0,11331.0,11331.0,11331.0,11331.0,11331.0,11326.0,11326.0,11326.0,11320.0,11320.0,11320.0,11315.0,11315.0,11315.0,11315.0,11315.0,11315.0,11315.0,11315.0,11315.0,11315.0,11309.0,11304.0,11304.0,11304.0,11298.0,11298.0,11298.0,11298.0,11298.0,11298.0,11293.0,11293.0,11293.0,11287.0,11287.0,11282.0,11282.0,11282.0,11276.0,11276.0,11276.0,11276.0,11276.0,11276.0,11276.0,11276.0,11276.0,11276.0,11276.0,11276.0,11276.0,11276.0,11276.0,11276.0,11276.0,11276.0,11276.0,11276.0,11276.0,11276.0,11276.0,11276.0,11276.0,11276.0,11276.0,11276.0,11276.0,11276.0,11276.0,11276.0,11276.0,11276.0,11276.0,11276.0,11276.0,11271.0,11271.0,11271.0,11265.0,11265.0,11265.0,11260.0,11260.0,11260.0,11260.0,11260.0,11254.0,11254.0,11249.0,11249.0,11249.0,11238.0,11232.0,11232.0,11227.0,11221.0,11221.0,11221.0,11216.0,11210.0,11210.0,11205.0,11205.0,11200.0,11194.0,11194.0,11194.0,11194.0,11194.0,11194.0,11194.0,11189.0,11189.0,11183.0,11178.0,11178.0,11178.0,11178.0,11172.0,11172.0,11167.0,11161.0,11161.0,11161.0,11161.0,11156.0,11156.0,11156.0,11156.0,11156.0,11150.0,11150.0,11145.0,11145.0,11145.0,11139.0,11134.0,11134.0,11134.0,11134.0,11128.0,11128.0,11128.0,11128.0,11128.0,11128.0,11128.0,11128.0,11128.0,11128.0,11128.0,11128.0,11128.0,11128.0,11128.0,11128.0,11128.0,11128.0,11128.0,11128.0,11128.0,11128.0,11128.0,11128.0,11128.0,11128.0,11128.0,11128.0,11128.0,11128.0,11128.0,11128.0,11128.0,11128.0,11128.0,11128.0,11128.0,11128.0,11128.0,11128.0,11128.0,11128.0,11128.0,11128.0,11128.0,11128.0,11128.0,11128.0,11128.0,11128.0,11128.0,11128.0,11128.0,11128.0,11128.0,11128.0,11128.0,11128.0,11128.0,11128.0,11128.0,11128.0,11128.0,11128.0,11128.0,11128.0,11128.0,11128.0,11128.0,11128.0,11128.0,11128.0,11128.0,11128.0,11128.0,11128.0,11128.0,11128.0,11128.0,11128.0,11128.0,11128.0,11128.0,11128.0,11128.0,11128.0,11128.0,11128.0,11128.0,11128.0,11128.0,11128.0,11128.0,11128.0,11128.0,11128.0,11128.0,11128.0,11134.0,11134.0,11134.0,11134.0,11134.0,11134.0,11134.0,11134.0,11134.0,11134.0,11134.0,11134.0,11139.0,11139.0,11139.0,11139.0,11145.0,11145.0,11145.0,11145.0,11150.0,11150.0,11150.0,11150.0,11156.0,11156.0,11156.0,11156.0,11161.0,11161.0,11161.0,11161.0,11161.0,11161.0,11161.0,11161.0,11167.0,11167.0,11167.0,11167.0,11167.0,11167.0,11172.0,11172.0,11172.0,11172.0,11172.0,11172.0,11172.0,11178.0,11178.0,11178.0,11178.0,11178.0,11178.0,11178.0,11178.0,11178.0,11183.0,11183.0,11183.0,11183.0,11183.0,11183.0,11183.0,11183.0,11183.0,11183.0,11183.0,11183.0,11183.0,11183.0,11189.0,11189.0,11189.0,11189.0,11189.0,11189.0,11189.0,11189.0,11189.0,11189.0,11189.0,11189.0,11189.0,11189.0,11189.0,11189.0,11189.0,11189.0,11189.0,11189.0,11189.0,11189.0,11189.0,11189.0,11189.0,11189.0,11189.0,11189.0,11189.0,11189.0,11189.0,11189.0,11189.0,11189.0,11189.0,11189.0,11189.0,11189.0,11189.0,11189.0,11189.0,11189.0,11189.0,11189.0,11189.0,11189.0,11189.0,11189.0,11189.0,11189.0,11189.0,11189.0,11189.0,11189.0,11189.0,11189.0,11189.0,11189.0,11189.0,11189.0,11189.0,11189.0,11189.0,11189.0,11189.0,11189.0,11189.0,11189.0,11189.0,11189.0,11189.0,11189.0,11189.0,11189.0,11189.0,11189.0,11189.0,11189.0,11189.0,11189.0,11189.0,11189.0,11189.0,11189.0,11189.0,11189.0,11189.0,11189.0,11189.0,11189.0,11189.0,11189.0,11189.0,11189.0,11189.0,11189.0,11189.0,11189.0,11189.0,11189.0,11189.0,11189.0,11189.0,11189.0,11189.0,11189.0,11189.0,11189.0,11189.0,11189.0,11189.0,11189.0,11189.0,11189.0,11189.0,11189.0,11189.0,11189.0,11189.0,11189.0,11189.0,11189.0,11189.0,11189.0,11189.0,11189.0,11189.0,11189.0,11189.0,11183.0,11183.0,11183.0,11183.0,11183.0,11183.0,11183.0,11183.0,11183.0,11183.0,11183.0,11183.0,11183.0,11183.0,11178.0,11178.0,11178.0,11178.0,11178.0,11178.0,11178.0,11172.0,11172.0,11172.0,11172.0,11172.0,11172.0,11172.0,11172.0,11172.0,11172.0,11172.0,11167.0,11167.0,11167.0,11167.0,11167.0,11167.0,11167.0,11161.0,11161.0,11161.0,11161.0,11161.0,11161.0,11161.0,11156.0,11150.0,11150.0,11150.0,11145.0,11145.0,11145.0,11139.0,11139.0,11139.0,11139.0,11139.0,11134.0,11134.0,11134.0,11134.0,11134.0,11134.0,11134.0,11134.0,11134.0,11134.0,11128.0,11128.0,11128.0,11128.0,11128.0,11128.0,11128.0,11128.0,11128.0,11128.0,11123.0,11123.0,11123.0,11123.0,11123.0,11123.0,11123.0,11123.0,11123.0,11123.0,11123.0,11123.0,11123.0,11123.0,11123.0,11123.0,11123.0,11123.0,11123.0,11123.0,11123.0,11123.0,11123.0,11123.0,11123.0,11123.0,11123.0,11123.0,11123.0,11123.0,11123.0,11123.0,11123.0,11123.0,11123.0,11123.0,11123.0,11123.0,11123.0,11123.0,11123.0,11123.0,11123.0,11123.0,11123.0,11123.0,11123.0,11123.0,11123.0,11123.0,11123.0,11128.0,11128.0,11128.0,11128.0,11128.0,11128.0,11128.0,11128.0,11128.0,11128.0,11128.0,11134.0,11134.0,11134.0,11134.0,11134.0,11134.0,11134.0,11134.0,11134.0,11134.0,11139.0,11139.0,11139.0,11139.0,11139.0,11139.0,11145.0,11145.0,11145.0,11145.0,11150.0,11150.0,11150.0,11156.0,11161.0,11161.0,11161.0,11161.0,11161.0,11161.0,11161.0,11161.0,11161.0,11161.0,11161.0,11167.0,11167.0,11167.0,11167.0,11167.0,11167.0,11167.0,11167.0,11167.0,11172.0,11172.0,11172.0,11172.0,11172.0,11172.0,11172.0,11172.0,11172.0,11172.0,11172.0,11178.0,11178.0,11178.0,11178.0,11178.0,11178.0,11178.0,11178.0,11183.0,11183.0,11183.0,11183.0,11183.0,11183.0,11183.0,11183.0,11183.0,11183.0,11183.0,11183.0,11183.0,11183.0,11183.0,11183.0,11183.0,11183.0,11183.0,11183.0,11183.0,11183.0,11183.0,11183.0,11183.0,11183.0,11183.0,11183.0,11183.0,11183.0,11183.0,11183.0,11183.0,11183.0,11183.0,11183.0,11183.0,11183.0,11183.0,11183.0,11183.0,11183.0,11183.0,11183.0,11183.0,11183.0,11189.0,11189.0,11189.0,11189.0,11189.0,11189.0,11189.0,11189.0,11189.0,11189.0,11189.0,11189.0,11189.0,11189.0,11189.0,11200.0,11200.0,11200.0,11200.0,11205.0,11205.0,11205.0,11205.0,11205.0,11205.0,11210.0,11210.0,11210.0,11210.0,11216.0,11227.0,11227.0,11227.0,11232.0,11232.0,11232.0,11232.0,11232.0,11232.0,11232.0,11232.0,11232.0,11232.0,11232.0,11238.0,11238.0,11243.0,11243.0,11243.0,11243.0,11243.0,11243.0,11243.0,11243.0,11243.0,11243.0,11243.0,11243.0,11243.0,11243.0,11243.0,11243.0,11243.0,11254.0,11254.0,11254.0,11254.0,11254.0,11260.0,11260.0,11260.0,11260.0,11260.0,11260.0,11260.0,11260.0,11260.0,11260.0,11260.0,11260.0,11260.0,11260.0,11260.0,11260.0,11260.0,11260.0,11260.0,11260.0,11260.0,11260.0,11260.0,11260.0,11260.0,11260.0,11260.0,11260.0,11260.0,11260.0,11260.0,11260.0,11260.0,11260.0,11260.0,11260.0,11260.0,11260.0,11260.0,11260.0,11260.0,11260.0,11260.0,11260.0,11260.0,11260.0,11260.0,11260.0,11260.0,11260.0,11260.0,11260.0,11260.0,11260.0,11260.0,11260.0,11260.0,11260.0,11260.0,11260.0,11260.0,11260.0,11260.0,11260.0,11260.0,11260.0,11260.0,11260.0,11260.0,11260.0,11260.0,11260.0,11260.0,11260.0,11260.0,11260.0,11260.0,11260.0,11260.0,11260.0,11260.0,11260.0,11260.0,11260.0,11260.0,11260.0,11260.0,11260.0,11260.0,11260.0,11260.0,11254.0,11254.0,11254.0,11254.0,11243.0,11243.0,11243.0,11243.0,11243.0,11243.0,11243.0,11243.0,11243.0,11243.0,11243.0,11243.0,11243.0,11243.0,11238.0,11238.0,11232.0,11232.0,11232.0,11232.0,11232.0,11232.0,11232.0,11232.0,11227.0,11227.0,11210.0,11210.0,11210.0,11200.0,11200.0,11200.0,11200.0,11189.0,11189.0,11189.0,11189.0,11183.0,11183.0,11183.0,11183.0,11183.0,11183.0,11183.0,11183.0,11183.0,11183.0,11183.0,11183.0,11183.0,11183.0,11183.0,11183.0,11183.0,11183.0,11183.0,11183.0,11183.0,11183.0,11183.0,11183.0,11183.0,11183.0,11183.0,11183.0,11183.0,11183.0,11183.0,11183.0,11178.0,11172.0,11172.0,11172.0,11172.0,11172.0,11167.0,11167.0,11167.0,11167.0,11167.0,11161.0,11161.0,11161.0,11161.0,11161.0,11145.0,11145.0,11145.0,11139.0,11139.0,11134.0,11134.0,11128.0,11128.0,11128.0,11128.0,11123.0,11123.0,11123.0,11123.0,11123.0,11123.0,11123.0,11123.0,11117.0,11117.0,11112.0,11112.0,11112.0,11112.0,11112.0,11112.0,11112.0,11112.0,11112.0,11112.0,11112.0,11112.0,11112.0,11112.0,11112.0,11112.0,11112.0,11112.0,11112.0,11112.0,11112.0,11112.0,11112.0,11112.0,11112.0,11112.0,11112.0,11112.0,11112.0,11112.0,11112.0,11112.0,11112.0,11112.0,11112.0,11112.0,11112.0,11112.0,11112.0,11112.0,11112.0,11112.0,11112.0,11112.0,11112.0,11112.0,11112.0,11112.0,11112.0,11112.0,11112.0,11112.0,11112.0,11112.0,11112.0,11112.0,11112.0,11112.0,11112.0,11112.0,11112.0,11112.0,11112.0,11112.0,11112.0,11112.0,11112.0,11112.0,11112.0,11112.0,11112.0,11112.0,11112.0,11112.0,11112.0,11112.0,11112.0,11112.0,11112.0,11112.0,11112.0,11112.0,11112.0,11112.0,11112.0,11112.0,11112.0,11112.0,11112.0,11112.0,11112.0,11112.0,11112.0,11112.0,11112.0,11112.0,11112.0,11117.0,11117.0,11117.0,11123.0,11123.0,11123.0,11123.0,11123.0,11123.0,11123.0,11128.0,11128.0,11128.0,11134.0,11134.0,11134.0,11139.0,11139.0,11139.0,11145.0,11145.0,11145.0,11145.0,11145.0,11150.0,11150.0,11156.0,11156.0,11156.0,11156.0,11156.0,11156.0,11156.0,11156.0,11156.0,11156.0,11156.0,11156.0,11161.0,11161.0,11161.0,11161.0,11161.0,11161.0,11161.0,11167.0,11167.0,11167.0,11167.0,11167.0,11167.0,11172.0,11172.0,11172.0,11172.0,11178.0,11178.0,11178.0,11178.0,11178.0,11178.0,11178.0,11178.0,11183.0,11183.0,11183.0,11183.0,11183.0,11183.0,11183.0,11183.0,11183.0,11183.0,11183.0,11183.0,11183.0,11183.0,11183.0,11183.0,11183.0,11183.0,11183.0,11183.0,11183.0,11183.0,11183.0,11183.0,11183.0,11183.0,11183.0,11183.0,11183.0,11183.0,11183.0,11183.0,11183.0,11183.0,11189.0,11189.0,11189.0,11189.0,11189.0,11194.0,11194.0,11194.0,11194.0,11194.0,11194.0,11194.0,11194.0,11194.0,11194.0,11194.0,11194.0,11194.0,11194.0,11194.0,11194.0,11194.0,11194.0,11194.0,11194.0,11200.0,11200.0,11200.0,11200.0,11200.0,11200.0,11200.0,11200.0,11200.0,11200.0,11200.0,11200.0,11200.0,11200.0,11200.0,11200.0,11200.0,11200.0,11200.0,11200.0,11200.0,11200.0,11200.0,11200.0,11200.0,11200.0,11200.0,11200.0,11200.0,11205.0,11205.0,11205.0,11205.0,11205.0,11205.0,11205.0,11205.0,11210.0,11210.0,11210.0,11210.0,11210.0,11210.0,11210.0,11210.0,11210.0,11210.0,11210.0,11210.0,11210.0,11210.0,11210.0,11210.0,11210.0,11210.0,11210.0,11210.0,11210.0,11210.0,11210.0,11210.0,11210.0,11210.0,11210.0,11210.0,11210.0,11210.0,11210.0,11210.0,11210.0,11210.0,11210.0,11210.0,11210.0,11210.0,11210.0,11210.0,11210.0,11210.0,11210.0,11210.0,11210.0,11210.0,11210.0,11210.0,11210.0,11210.0,11210.0,11210.0,11210.0,11210.0,11210.0,11210.0,11210.0,11210.0,11210.0,11210.0,11210.0,11210.0,11210.0,11210.0,11210.0,11210.0,11210.0,11210.0,11210.0,11210.0,11210.0,11210.0,11210.0,11210.0,11210.0,11210.0,11210.0,11210.0,11210.0,11210.0,11210.0,11210.0,11210.0,11210.0,11210.0,11210.0,11210.0,11210.0,11210.0,11210.0,11210.0,11210.0,11210.0,11210.0,11210.0,11210.0,11210.0,11210.0,11210.0,11210.0,11210.0,11210.0,11210.0,11210.0,11210.0,11210.0,11210.0,11210.0,11210.0,11210.0,11210.0,11210.0,11210.0,11210.0,11210.0,11210.0,11210.0,11210.0,11210.0,11210.0,11210.0,11210.0,11210.0,11210.0,11210.0,11210.0,11210.0,11210.0,11210.0,11210.0,11210.0,11210.0,11210.0,11210.0,11210.0,11210.0,11210.0,11210.0,11210.0,11210.0,11210.0,11210.0,11210.0,11210.0,11210.0,11205.0,11205.0,11205.0,11205.0,11205.0,11205.0,11205.0,11205.0,11205.0,11205.0,11205.0,11205.0,11205.0,11205.0,11205.0,11205.0,11205.0,11205.0,11205.0,11205.0,11205.0,11205.0,11205.0,11205.0,11205.0,11205.0,11205.0,11205.0,11205.0,11205.0,11205.0,11205.0,11205.0,11205.0,11205.0,11205.0,11205.0,11205.0,11205.0,11205.0,11205.0,11205.0,11205.0,11205.0,11205.0,11205.0,11205.0,11205.0,11205.0,11205.0,11205.0,11205.0,11205.0,11205.0,11205.0,11205.0,11205.0,11205.0,11205.0,11205.0,11205.0,11205.0,11205.0,11205.0,11205.0,11205.0,11205.0,11205.0,11205.0,11205.0,11205.0,11205.0,11205.0,11205.0,11205.0,11205.0,11205.0,11205.0,11205.0,11205.0,11205.0,11205.0,11205.0,11205.0,11205.0,11205.0,11205.0,11205.0,11205.0,11205.0,11205.0,11205.0,11205.0,11205.0,11205.0,11205.0,11205.0,11205.0,11205.0,11205.0,11205.0,11205.0,11205.0,11205.0,11205.0,11205.0,11205.0,11205.0,11205.0,11205.0,11205.0,11205.0,11205.0,11205.0,11205.0,11205.0,11205.0,11205.0,11210.0,11210.0,11210.0,11210.0,11210.0,11216.0,11216.0,11216.0,11216.0,11216.0,11216.0,11216.0,11216.0,11221.0,11227.0,11227.0,11227.0,11227.0,11227.0,11232.0,11232.0,11232.0,11238.0,11238.0,11238.0,11243.0,11243.0,11249.0,11249.0,11249.0,11249.0,11249.0,11249.0,11249.0,11249.0,11249.0,11249.0,11249.0,11249.0,11249.0,11249.0,11254.0,11254.0,11254.0,11254.0,11254.0,11254.0,11254.0,11260.0,11260.0,11260.0,11260.0,11260.0,11260.0,11260.0,11260.0,11260.0,11265.0,11265.0,11265.0,11265.0,11265.0,11265.0,11265.0,11271.0,11271.0,11271.0,11271.0,11271.0,11271.0,11271.0,11271.0,11271.0,11271.0,11271.0,11271.0,11271.0,11271.0,11271.0,11271.0,11276.0,11276.0,11276.0,11276.0,11276.0,11276.0,11276.0,11276.0,11282.0,11282.0,11282.0,11282.0,11282.0,11282.0,11282.0,11282.0,11282.0,11282.0,11282.0,11282.0,11287.0,11287.0,11287.0,11287.0,11287.0,11287.0,11287.0,11293.0,11293.0,11293.0,11293.0,11293.0,11293.0,11293.0,11293.0,11293.0,11293.0,11293.0,11293.0,11293.0,11293.0,11293.0,11293.0,11293.0,11293.0,11293.0,11293.0,11293.0,11293.0,11293.0,11293.0,11293.0,11293.0,11293.0,11293.0,11293.0,11293.0,11293.0,11293.0,11293.0,11293.0,11293.0,11293.0,11293.0,11293.0,11293.0,11293.0,11293.0,11293.0,11293.0,11293.0,11293.0,11293.0,11293.0,11293.0,11293.0,11293.0,11293.0,11298.0,11298.0,11304.0,11304.0,11304.0,11304.0,11304.0,11304.0,11304.0,11304.0,11304.0,11309.0,11309.0,11309.0,11309.0,11309.0,11309.0,11309.0,11309.0,11309.0,11309.0,11309.0,11309.0,11315.0,11315.0,11320.0,11320.0,11320.0,11320.0,11320.0,11320.0,11320.0,11320.0,11320.0,11320.0,11320.0,11320.0,11320.0,11320.0,11320.0,11320.0,11320.0,11320.0,11320.0,11320.0,11320.0,11320.0,11320.0,11320.0,11320.0,11320.0,11320.0,11320.0,11320.0,11320.0,11320.0,11320.0,11320.0,11320.0,11320.0,11320.0,11320.0,11320.0,11320.0,11320.0,11320.0,11320.0,11320.0,11320.0,11320.0,11320.0,11320.0,11320.0,11320.0,11320.0,11320.0,11320.0,11320.0,11320.0,11320.0,11320.0,11320.0,11320.0,11320.0,11320.0,11320.0,11320.0,11320.0,11320.0,11320.0,11320.0,11320.0,11320.0,11320.0,11320.0,11320.0,11320.0,11320.0,11320.0,11320.0,11320.0,11320.0,11320.0,11320.0,11320.0,11320.0,11320.0,11320.0,11320.0,11320.0,11320.0,11320.0,11320.0,11320.0,11320.0,11320.0,11320.0,11320.0,11320.0,11320.0,11320.0,11320.0,11320.0,11320.0,11320.0,11320.0,11320.0,11320.0,11320.0,11320.0,11320.0,11320.0,11320.0,11320.0,11320.0,11320.0,11320.0,11315.0,11315.0,11309.0,11309.0,11309.0,11309.0,11309.0,11304.0,11304.0,11304.0,11298.0,11293.0,11293.0,11293.0,11293.0,11293.0,11293.0,11293.0,11293.0,11293.0,11293.0,11293.0,11293.0,11293.0,11293.0,11293.0,11293.0,11293.0,11293.0,11293.0,11293.0,11293.0,11293.0,11293.0,11293.0,11293.0,11293.0,11293.0,11293.0,11293.0,11293.0,11293.0,11293.0,11293.0,11293.0,11293.0,11293.0,11293.0,11287.0,11287.0,11282.0,11276.0,11276.0,11276.0,11276.0,11276.0,11276.0,11271.0,11271.0,11271.0,11271.0,11271.0,11271.0,11265.0,11260.0,11254.0,11249.0,11249.0,11238.0,11238.0,11232.0,11216.0,11216.0,11216.0,11216.0,11216.0,11216.0,11216.0,11210.0,11210.0,11210.0,11210.0,11205.0,11200.0,11200.0,11194.0,11194.0,11194.0,11194.0,11189.0,11189.0,11189.0,11183.0,11183.0,11183.0,11178.0,11172.0,11172.0,11172.0,11156.0,11156.0,11156.0,11156.0,11156.0,11156.0,11156.0,11156.0,11156.0,11156.0,11156.0,11150.0,11150.0,11150.0,11150.0,11139.0,11134.0,11134.0,11128.0,11123.0,11123.0,11123.0,11117.0,11117.0,11117.0,11106.0,11101.0,11101.0,11101.0,11101.0,11101.0,11101.0,11101.0,11101.0,11101.0,11101.0,11101.0,11095.0,11090.0,11090.0,11090.0,11090.0,11084.0,11084.0,11084.0,11084.0,11084.0,11084.0,11084.0,11084.0,11084.0,11084.0,11084.0,11084.0,11084.0,11084.0,11084.0,11084.0,11084.0,11084.0,11084.0,11084.0,11084.0,11084.0,11084.0,11084.0,11084.0,11084.0,11084.0,11084.0,11084.0,11084.0,11084.0,11084.0,11084.0,11084.0,11084.0,11084.0,11084.0,11084.0,11084.0,11084.0,11084.0,11084.0,11084.0,11084.0,11084.0,11084.0,11084.0,11084.0,11084.0,11084.0,11084.0,11084.0,11084.0,11084.0,11084.0,11084.0,11084.0,11084.0,11084.0,11084.0,11084.0,11084.0,11084.0,11084.0,11084.0,11084.0,11084.0,11084.0,11084.0,11084.0,11084.0,11084.0,11084.0,11084.0,11084.0,11084.0,11084.0,11084.0,11084.0,11084.0,11084.0,11084.0,11084.0,11084.0,11090.0,11090.0,11090.0,11090.0,11090.0,11090.0,11090.0,11090.0,11090.0,11090.0,11090.0,11095.0,11095.0,11095.0,11095.0,11095.0,11095.0,11101.0,11101.0,11101.0,11101.0,11101.0,11101.0,11101.0,11101.0,11101.0,11101.0,11101.0,11101.0,11101.0,11101.0,11101.0,11101.0,11101.0,11101.0,11101.0,11101.0,11101.0,11101.0,11101.0,11106.0,11106.0,11106.0,11106.0,11106.0,11112.0,11112.0,11112.0,11112.0,11112.0,11112.0,11112.0,11112.0,11117.0,11117.0,11117.0,11117.0,11123.0,11123.0,11123.0,11123.0,11123.0,11123.0,11123.0,11123.0,11123.0,11123.0,11123.0,11123.0,11123.0,11123.0,11123.0,11123.0,11123.0,11123.0,11123.0,11123.0,11123.0,11123.0,11123.0,11123.0,11123.0,11123.0,11123.0,11123.0,11123.0,11123.0,11123.0,11123.0,11123.0,11123.0,11123.0,11123.0,11123.0,11123.0,11123.0,11123.0,11123.0,11123.0,11123.0,11123.0,11123.0,11123.0,11123.0,11123.0,11123.0,11123.0,11123.0,11123.0,11123.0,11123.0,11123.0,11123.0,11123.0,11123.0,11123.0,11123.0,11123.0,11123.0,11123.0,11123.0,11123.0,11123.0,11123.0,11123.0,11123.0,11123.0,11123.0,11123.0,11123.0,11123.0,11123.0,11123.0,11123.0,11123.0,11123.0,11123.0,11123.0,11123.0,11123.0,11123.0,11123.0,11123.0,11123.0,11123.0,11123.0,11123.0,11123.0,11123.0,11123.0,11123.0,11123.0,11123.0,11123.0,11123.0,11123.0,11123.0,11123.0,11123.0,11123.0,11123.0,11123.0,11123.0,11123.0,11123.0,11123.0,11123.0,11123.0,11123.0,11123.0,11123.0,11123.0,11123.0,11123.0,11123.0,11123.0,11123.0,11123.0,11123.0,11123.0,11123.0,11123.0,11123.0,11123.0,11123.0,11123.0,11123.0,11123.0,11123.0,11123.0,11123.0,11123.0,11123.0,11123.0,11123.0,11123.0,11123.0,11123.0,11123.0,11123.0,11123.0,11123.0,11123.0,11123.0,11123.0,11123.0,11123.0,11123.0,11123.0,11123.0,11123.0,11123.0,11123.0,11123.0,11123.0,11123.0,11123.0,11123.0,11123.0,11123.0,11123.0,11123.0,11123.0,11123.0,11123.0,11123.0,11123.0,11123.0,11123.0,11123.0,11123.0,11123.0,11123.0,11123.0,11123.0,11123.0,11123.0,11123.0,11123.0,11123.0,11123.0,11123.0,11123.0,11123.0,11123.0,11123.0,11123.0,11123.0,11123.0,11123.0,11123.0,11123.0,11123.0,11123.0,11123.0,11123.0,11123.0,11123.0,11123.0,11123.0,11123.0,11123.0,11123.0,11123.0,11123.0,11123.0,11123.0,11123.0,11123.0,11123.0,11123.0,11123.0,11123.0,11117.0,11117.0,11117.0,11117.0,11117.0,11117.0,11117.0,11117.0,11117.0,11117.0,11117.0,11117.0,11117.0,11117.0,11117.0,11117.0,11117.0,11117.0,11117.0,11117.0,11117.0,11117.0,11117.0,11117.0,11117.0,11117.0,11117.0,11117.0,11117.0,11117.0,11117.0,11117.0,11117.0,11117.0,11117.0,11117.0,11117.0,11117.0,11117.0,11117.0,11117.0,11117.0,11117.0,11117.0,11117.0,11117.0,11117.0,11117.0,11117.0,11117.0,11117.0,11117.0,11117.0,11117.0,11123.0,11123.0,11123.0,11123.0,11123.0,11123.0,11123.0,11128.0,11128.0,11128.0,11128.0,11128.0,11128.0,11128.0,11128.0,11128.0,11128.0,11128.0,11128.0,11128.0,11128.0,11128.0,11128.0,11128.0,11128.0,11128.0,11134.0,11134.0,11134.0,11134.0,11134.0,11134.0,11134.0,11134.0,11134.0,11139.0,11145.0,11145.0,11145.0,11145.0,11150.0,11150.0,11150.0,11150.0,11156.0,11156.0,11156.0,11156.0,11156.0,11156.0,11156.0,11156.0,11156.0,11156.0,11156.0,11156.0,11156.0,11156.0,11156.0,11156.0,11161.0,11161.0,11161.0,11161.0,11161.0,11161.0,11161.0,11161.0,11161.0,11161.0,11161.0,11161.0,11161.0,11161.0,11161.0,11167.0,11167.0,11172.0,11172.0,11172.0,11172.0,11172.0,11172.0,11172.0,11172.0,11172.0,11172.0,11172.0,11172.0,11172.0,11178.0,11178.0,11178.0,11178.0,11178.0,11183.0,11183.0,11183.0,11183.0,11183.0,11183.0,11183.0,11183.0,11183.0,11183.0,11183.0,11183.0,11189.0,11189.0,11194.0,11194.0,11194.0,11194.0,11200.0,11200.0,11200.0,11200.0,11200.0,11205.0,11205.0,11205.0,11205.0,11205.0,11205.0,11205.0,11205.0,11205.0,11205.0,11210.0,11210.0,11210.0,11210.0,11216.0,11216.0,11216.0,11216.0,11216.0,11216.0,11216.0,11216.0,11216.0,11216.0,11216.0,11216.0,11221.0,11221.0,11221.0,11221.0,11221.0,11227.0,11232.0,11232.0,11232.0,11232.0,11232.0,11238.0,11238.0,11238.0,11238.0,11249.0,11249.0,11249.0,11249.0,11254.0,11254.0,11254.0,11254.0,11254.0,11254.0,11260.0,11260.0,11260.0,11265.0,11265.0,11265.0,11265.0,11265.0,11265.0,11271.0,11271.0,11271.0,11271.0,11271.0,11271.0,11271.0,11271.0,11271.0,11276.0,11276.0,11282.0,11282.0,11282.0,11282.0,11282.0,11282.0,11282.0,11287.0,11287.0,11293.0,11293.0,11293.0,11293.0,11293.0,11293.0,11293.0,11293.0,11293.0,11293.0,11293.0,11293.0,11293.0,11293.0,11293.0,11293.0,11293.0,11293.0,11293.0,11293.0,11293.0,11293.0,11293.0,11293.0,11293.0,11293.0,11293.0,11293.0,11293.0,11293.0,11293.0,11293.0,11293.0,11293.0,11293.0,11293.0,11293.0,11293.0,11293.0,11293.0,11293.0,11293.0,11293.0,11293.0,11293.0,11293.0,11293.0,11293.0,11293.0,11293.0,11293.0,11293.0,11293.0,11293.0,11293.0,11293.0,11293.0,11293.0,11293.0,11293.0,11293.0,11293.0,11293.0,11293.0,11293.0,11293.0,11293.0,11293.0,11293.0,11293.0,11293.0,11293.0,11293.0,11293.0,11293.0,11293.0,11293.0,11293.0,11293.0,11293.0,11293.0,11293.0,11293.0,11293.0,11293.0,11293.0,11293.0,11293.0,11293.0,11293.0,11293.0,11293.0,11293.0,11293.0,11293.0,11293.0,11293.0,11293.0,11293.0,11293.0,11293.0,11293.0,11293.0,11293.0,11293.0,11293.0,11293.0,11293.0,11293.0,11293.0,11293.0,11293.0,11293.0,11293.0,11293.0,11293.0,11293.0,11293.0,11293.0,11293.0,11293.0,11293.0,11293.0,11293.0,11293.0,11293.0,11293.0,11293.0,11293.0,11293.0,11293.0,11293.0,11293.0,11293.0,11293.0,11293.0,11293.0,11293.0,11293.0,11293.0,11293.0,11293.0,11293.0,11293.0,11293.0,11293.0,11293.0,11293.0,11293.0,11293.0,11293.0,11293.0,11293.0,11293.0,11293.0,11293.0,11293.0,11293.0,11293.0,11293.0,11293.0,11293.0,11293.0,11293.0,11293.0,11293.0,11293.0,11293.0,11293.0,11293.0,11293.0,11293.0,11293.0,11293.0,11293.0,11293.0,11293.0,11293.0,11293.0,11293.0,11293.0,11293.0,11293.0,11293.0,11293.0,11293.0,11293.0,11293.0,11293.0,11293.0,11293.0,11293.0,11293.0,11293.0,11293.0,11293.0,11293.0,11293.0,11293.0,11293.0,11287.0,11287.0,11282.0,11282.0,11282.0,11276.0,11271.0,11271.0,11271.0,11265.0,11260.0,11254.0,11254.0,11254.0,11254.0,11254.0,11249.0,11249.0,11249.0,11249.0,11249.0,11238.0,11238.0,11238.0,11238.0,11232.0,11232.0,11232.0,11227.0,11221.0,11221.0,11216.0,11216.0,11216.0,11216.0,11216.0,11216.0,11216.0,11216.0,11216.0,11210.0,11205.0,11205.0,11205.0,11205.0,11205.0,11205.0,11205.0,11200.0,11200.0,11200.0,11194.0,11194.0,11194.0,11189.0,11183.0,11183.0,11183.0,11183.0,11183.0,11183.0,11178.0,11178.0,11172.0,11172.0,11172.0,11172.0,11172.0,11172.0,11172.0,11172.0,11167.0,11167.0,11161.0,11156.0,11156.0,11156.0,11156.0,11156.0,11156.0,11156.0,11156.0,11156.0,11156.0,11156.0,11156.0,11156.0,11156.0,11156.0,11156.0,11156.0,11156.0,11156.0,11156.0,11156.0,11156.0,11156.0,11156.0,11156.0,11156.0,11156.0,11156.0,11156.0,11156.0,11156.0,11156.0,11156.0,11156.0,11156.0,11156.0,11156.0,11156.0,11156.0,11156.0,11156.0,11156.0,11156.0,11156.0,11156.0,11156.0,11156.0,11156.0,11156.0,11156.0,11156.0,11156.0,11156.0,11156.0,11156.0,11156.0,11156.0,11156.0,11156.0,11156.0,11156.0,11156.0,11156.0,11156.0,11156.0,11156.0,11161.0,11161.0,11167.0,11167.0,11167.0,11167.0,11167.0,11167.0,11167.0,11172.0,11172.0,11172.0,11172.0,11172.0,11172.0,11172.0,11172.0,11172.0,11172.0,11172.0,11172.0,11172.0,11172.0,11172.0,11178.0,11178.0,11178.0,11178.0,11178.0,11178.0,11178.0,11178.0,11178.0,11183.0,11183.0,11183.0,11183.0,11183.0,11183.0,11183.0,11183.0,11189.0,11189.0,11189.0,11189.0,11189.0,11189.0,11189.0,11194.0,11194.0,11194.0,11194.0,11194.0,11194.0,11194.0,11194.0,11194.0,11200.0,11200.0,11200.0,11200.0,11205.0,11205.0,11205.0,11205.0,11205.0,11205.0,11205.0,11205.0,11210.0,11216.0,11216.0,11216.0,11216.0,11216.0,11216.0,11216.0,11216.0,11216.0,11216.0,11216.0,11221.0,11221.0,11221.0,11221.0,11221.0,11221.0,11221.0,11221.0,11221.0,11221.0,11221.0,11221.0,11221.0,11221.0,11221.0,11227.0,11227.0,11227.0,11227.0,11227.0,11227.0,11227.0,11227.0,11227.0,11227.0,11227.0,11227.0,11227.0,11227.0,11227.0,11227.0,11227.0,11227.0,11227.0,11227.0,11227.0,11227.0,11227.0,11227.0,11227.0,11227.0,11227.0,11227.0,11227.0,11227.0,11227.0,11227.0,11227.0,11227.0,11227.0,11227.0,11227.0,11227.0,11227.0,11227.0,11227.0,11227.0,11227.0,11227.0,11227.0,11227.0,11227.0,11227.0,11227.0,11227.0,11227.0,11227.0,11227.0,11227.0,11227.0,11227.0,11227.0,11227.0,11227.0,11227.0,11227.0,11227.0,11227.0,11227.0,11227.0,11227.0,11227.0,11227.0,11227.0,11227.0,11227.0,11227.0,11227.0,11227.0,11227.0,11227.0,11227.0,11227.0,11227.0,11227.0,11227.0,11227.0,11227.0,11227.0,11227.0,11227.0,11227.0,11227.0,11227.0,11227.0,11227.0,11227.0,11227.0,11227.0,11227.0,11227.0,11227.0,11227.0,11227.0,11227.0,11227.0,11227.0,11227.0,11227.0,11227.0,11227.0,11227.0,11227.0,11227.0,11227.0,11227.0,11227.0,11227.0,11227.0,11227.0,11227.0,11227.0,11227.0,11227.0,11227.0,11227.0,11227.0,11227.0,11227.0,11227.0,11227.0,11227.0,11227.0,11227.0,11227.0,11227.0,11227.0,11227.0,11227.0,11227.0,11227.0,11227.0,11227.0,11227.0,11227.0,11227.0,11227.0,11227.0,11227.0,11227.0,11227.0,11227.0,11227.0,11227.0,11227.0,11227.0,11227.0,11227.0,11227.0,11227.0,11227.0,11227.0,11227.0,11227.0,11227.0,11227.0,11221.0,11221.0,11221.0,11221.0,11221.0,11221.0,11221.0,11221.0,11221.0,11221.0,11221.0,11221.0,11221.0,11221.0,11216.0,11216.0,11216.0,11216.0,11210.0,11205.0,11205.0,11205.0,11205.0,11205.0,11205.0,11205.0,11200.0,11200.0,11200.0,11200.0,11194.0,11194.0,11194.0,11194.0,11194.0,11194.0,11194.0,11194.0,11189.0,11189.0,11189.0,11189.0,11189.0,11189.0,11189.0,11183.0,11183.0,11183.0,11183.0,11183.0,11183.0,11183.0,11183.0,11183.0,11183.0,11183.0,11183.0,11183.0,11183.0,11183.0,11183.0,11183.0,11183.0,11183.0,11183.0,11183.0,11183.0,11183.0,11183.0,11183.0,11183.0,11183.0,11183.0,11183.0,11183.0,11183.0,11183.0,11183.0,11183.0,11183.0,11183.0,11183.0,11183.0,11183.0,11183.0,11183.0,11183.0,11183.0,11183.0,11183.0,11183.0,11183.0,11183.0,11183.0,11183.0,11183.0,11183.0,11183.0,11183.0,11183.0,11183.0,11183.0,11183.0,11183.0,11183.0,11183.0,11183.0,11183.0,11183.0,11183.0,11183.0,11183.0,11183.0,11183.0,11183.0,11183.0,11183.0,11183.0,11183.0,11183.0,11183.0,11183.0,11183.0,11183.0,11183.0,11183.0,11183.0,11183.0,11183.0,11183.0,11189.0,11189.0,11189.0,11189.0,11189.0,11189.0,11194.0,11194.0,11194.0,11194.0,11194.0,11194.0,11194.0,11194.0,11194.0,11200.0,11200.0,11200.0,11200.0,11200.0,11205.0,11205.0,11205.0,11205.0,11210.0,11216.0,11216.0,11216.0,11216.0,11221.0,11221.0,11221.0,11221.0,11221.0,11221.0,11221.0,11221.0,11221.0,11221.0,11221.0,11221.0,11221.0,11221.0,11227.0,11227.0,11227.0,11227.0,11227.0,11227.0,11227.0,11227.0,11227.0,11227.0,11227.0,11227.0,11227.0,11227.0,11227.0,11232.0,11232.0,11232.0,11232.0,11232.0,11232.0,11232.0,11232.0,11232.0,11232.0,11232.0,11232.0,11232.0,11232.0,11232.0,11232.0,11232.0,11232.0,11232.0,11232.0,11232.0,11232.0,11232.0,11232.0,11232.0,11238.0,11238.0,11238.0,11238.0,11238.0,11238.0,11238.0,11238.0,11238.0,11238.0,11238.0,11238.0,11238.0,11238.0,11238.0,11238.0,11238.0,11238.0,11238.0,11238.0,11238.0,11238.0,11238.0,11238.0,11238.0,11238.0,11238.0,11238.0,11238.0,11238.0,11238.0,11238.0,11238.0,11238.0,11238.0,11238.0,11238.0,11238.0,11238.0,11243.0,11243.0,11243.0,11243.0,11243.0,11243.0,11243.0,11243.0,11243.0,11243.0,11249.0,11249.0,11249.0,11249.0,11254.0,11254.0,11260.0,11260.0,11265.0,11265.0,11265.0,11265.0,11265.0,11265.0,11265.0,11265.0,11271.0,11271.0,11271.0,11271.0,11271.0,11271.0,11276.0,11276.0,11287.0,11287.0,11293.0,11293.0,11293.0,11298.0,11304.0,11304.0,11304.0,11309.0,11309.0,11309.0,11309.0,11315.0,11315.0,11315.0,11315.0,11315.0,11315.0,11315.0,11315.0,11315.0,11320.0,11320.0,11320.0,11320.0,11320.0,11320.0,11320.0,11320.0,11320.0,11320.0,11320.0,11320.0,11320.0,11320.0,11320.0,11320.0,11320.0,11320.0,11320.0,11320.0,11320.0,11320.0,11320.0,11320.0,11320.0,11320.0,11320.0,11320.0,11320.0,11320.0,11320.0,11320.0,11320.0,11320.0,11320.0,11320.0,11320.0,11320.0,11320.0,11320.0,11320.0,11320.0,11320.0,11320.0,11320.0,11320.0,11320.0,11320.0,11320.0,11320.0,11320.0,11320.0,11320.0,11320.0,11320.0,11320.0,11320.0,11320.0,11320.0,11320.0,11320.0,11320.0,11320.0,11320.0,11320.0,11320.0,11320.0,11320.0,11320.0,11320.0,11320.0,11320.0,11320.0,11320.0,11320.0,11320.0,11320.0,11320.0,11320.0,11320.0,11320.0,11320.0,11320.0,11320.0,11320.0,11320.0,11320.0,11320.0,11320.0,11320.0,11320.0,11320.0,11320.0,11320.0,11320.0,11320.0,11320.0,11320.0,11320.0,11320.0,11320.0,11320.0,11320.0,11320.0,11320.0,11320.0,11320.0,11320.0,11320.0,11320.0,11320.0,11320.0,11320.0,11320.0,11320.0,11320.0,11320.0,11320.0,11320.0,11320.0,11320.0,11320.0,11320.0,11320.0,11320.0,11315.0,11315.0,11309.0,11309.0,11309.0,11304.0,11304.0,11304.0,11304.0,11293.0,11293.0,11265.0,11265.0,11265.0,11243.0,11238.0,11238.0,11238.0,11238.0,11238.0,11238.0,11238.0,11238.0,11238.0,11238.0,11238.0,11238.0,11238.0,11238.0,11238.0,11238.0,11238.0,11238.0,11238.0,11238.0,11238.0,11238.0,11238.0,11238.0,11238.0,11238.0,